#[MATERIAL DEFINITION FOR MC-GPU: interaction mean free path and sampling data from PENELOPE 2006]
#[MATERIAL NAME]
# ADIPOSE TISSUE (ICRP)  (103)                                  
#[NOMINAL DENSITY (g/cm^3)]
#   0.92000000
#[NUMBER OF DATA VALUES]
#  23002
#[MEAN FREE PATHS (cm)]
#[Energy (eV)     | Rayleigh        | Compton         | Photoelectric   | TOTAL (+pair prod) (cm) | Rayleigh: max cumul prob F^2]
  5.00000E+03  2.7776557644E+00  7.7265088020E+00  4.5118767668E-02  4.4143939416E-02  3.3867176584E-01
  5.00500E+03  2.7808111198E+00  7.7238393179E+00  4.5257324017E-02  4.4277277556E-02  3.3892435505E-01
  5.01000E+03  2.7839669035E+00  7.7211734202E+00  4.5396166505E-02  4.4410878873E-02  3.3917674535E-01
  5.01500E+03  2.7871231154E+00  7.7185111004E+00  4.5535295435E-02  4.4544743590E-02  3.3942893734E-01
  5.02000E+03  2.7902797549E+00  7.7158523504E+00  4.5674711112E-02  4.4678871931E-02  3.3968093162E-01
  5.02500E+03  2.7934368217E+00  7.7131971616E+00  4.5814413837E-02  4.4813264119E-02  3.3993272879E-01
  5.03000E+03  2.7965943154E+00  7.7105455259E+00  4.5954403915E-02  4.4947920377E-02  3.4018432945E-01
  5.03500E+03  2.7997522357E+00  7.7078974349E+00  4.6094681649E-02  4.5082840929E-02  3.4043573420E-01
  5.04000E+03  2.8029105823E+00  7.7052528804E+00  4.6235247342E-02  4.5218025997E-02  3.4068694363E-01
  5.04500E+03  2.8060693546E+00  7.7026118541E+00  4.6376101297E-02  4.5353475804E-02  3.4093795832E-01
  5.05000E+03  2.8092285525E+00  7.6999743479E+00  4.6517243818E-02  4.5489190572E-02  3.4118877888E-01
  5.05500E+03  2.8124199463E+00  7.6974191347E+00  4.6658675208E-02  4.5625181654E-02  3.4143940588E-01
  5.06000E+03  2.8156157308E+00  7.6948770142E+00  4.6800395770E-02  4.5761439627E-02  3.4168983992E-01
  5.06500E+03  2.8188119849E+00  7.6923382428E+00  4.6942405808E-02  4.5897963347E-02  3.4194008158E-01
  5.07000E+03  2.8220087084E+00  7.6898028127E+00  4.7084705626E-02  4.6034753035E-02  3.4219013144E-01
  5.07500E+03  2.8252059007E+00  7.6872707163E+00  4.7227295526E-02  4.6171808915E-02  3.4243999009E-01
  5.08000E+03  2.8284035616E+00  7.6847419458E+00  4.7370175813E-02  4.6309131208E-02  3.4268965811E-01
  5.08500E+03  2.8316016906E+00  7.6822164937E+00  4.7513346789E-02  4.6446720136E-02  3.4293913606E-01
  5.09000E+03  2.8348002873E+00  7.6796943523E+00  4.7656808758E-02  4.6584575920E-02  3.4318842454E-01
  5.09500E+03  2.8379993514E+00  7.6771755141E+00  4.7800562024E-02  4.6722698782E-02  3.4343752411E-01
  5.10000E+03  2.8411988824E+00  7.6746599715E+00  4.7944606890E-02  4.6861088944E-02  3.4368643534E-01
  5.10500E+03  2.8443988799E+00  7.6721477169E+00  4.8088943659E-02  4.6999746627E-02  3.4393515882E-01
  5.11000E+03  2.8475993437E+00  7.6696387429E+00  4.8233572636E-02  4.7138672050E-02  3.4418369510E-01
  5.11500E+03  2.8508002732E+00  7.6671330419E+00  4.8378494123E-02  4.7277865436E-02  3.4443204476E-01
  5.12000E+03  2.8540016681E+00  7.6646306065E+00  4.8523708425E-02  4.7417327005E-02  3.4468020835E-01
  5.12500E+03  2.8572035280E+00  7.6621314293E+00  4.8669215844E-02  4.7557056976E-02  3.4492818646E-01
  5.13000E+03  2.8604058525E+00  7.6596355028E+00  4.8815016685E-02  4.7697055571E-02  3.4517597963E-01
  5.13500E+03  2.8636086413E+00  7.6571428197E+00  4.8961111251E-02  4.7837323009E-02  3.4542358844E-01
  5.14000E+03  2.8668118939E+00  7.6546533725E+00  4.9107499846E-02  4.7977859510E-02  3.4567101343E-01
  5.14500E+03  2.8700156100E+00  7.6521671540E+00  4.9254182773E-02  4.8118665293E-02  3.4591825517E-01
  5.15000E+03  2.8732197892E+00  7.6496841568E+00  4.9401160336E-02  4.8259740578E-02  3.4616531436E-01
  5.15500E+03  2.8764244310E+00  7.6472043736E+00  4.9548432838E-02  4.8401085584E-02  3.4641219176E-01
  5.16000E+03  2.8796295352E+00  7.6447277972E+00  4.9696000584E-02  4.8542700531E-02  3.4665888796E-01
  5.16500E+03  2.8828351013E+00  7.6422544203E+00  4.9843863877E-02  4.8684585636E-02  3.4690540355E-01
  5.17000E+03  2.8860411290E+00  7.6397842357E+00  4.9992023021E-02  4.8826741119E-02  3.4715173909E-01
  5.17500E+03  2.8892476179E+00  7.6373172361E+00  5.0140478319E-02  4.8969167198E-02  3.4739789518E-01
  5.18000E+03  2.8924545675E+00  7.6348534145E+00  5.0289230076E-02  4.9111864091E-02  3.4764387238E-01
  5.18500E+03  2.8956619776E+00  7.6323927636E+00  5.0438278594E-02  4.9254832016E-02  3.4788967127E-01
  5.19000E+03  2.8988698476E+00  7.6299352763E+00  5.0587624178E-02  4.9398071192E-02  3.4813529242E-01
  5.19500E+03  2.9020781774E+00  7.6274809455E+00  5.0737267132E-02  4.9541581835E-02  3.4838073640E-01
  5.20000E+03  2.9052869664E+00  7.6250297641E+00  5.0887207759E-02  4.9685364164E-02  3.4862600378E-01
  5.20500E+03  2.9084962144E+00  7.6225817251E+00  5.1037446364E-02  4.9829418395E-02  3.4887109513E-01
  5.21000E+03  2.9117059209E+00  7.6201368214E+00  5.1187983249E-02  4.9973744746E-02  3.4911601101E-01
  5.21500E+03  2.9149160855E+00  7.6176950460E+00  5.1338818720E-02  5.0118343433E-02  3.4936075199E-01
  5.22000E+03  2.9181267080E+00  7.6152563919E+00  5.1489953079E-02  5.0263214674E-02  3.4960531863E-01
  5.22500E+03  2.9213377878E+00  7.6128208521E+00  5.1641386631E-02  5.0408358684E-02  3.4984971149E-01
  5.23000E+03  2.9245493247E+00  7.6103884197E+00  5.1793119679E-02  5.0553775680E-02  3.5009393113E-01
  5.23500E+03  2.9277613182E+00  7.6079590877E+00  5.1945152528E-02  5.0699465879E-02  3.5033797810E-01
  5.24000E+03  2.9309737681E+00  7.6055328493E+00  5.2097485481E-02  5.0845429495E-02  3.5058185296E-01
  5.24500E+03  2.9341866738E+00  7.6031096975E+00  5.2250118842E-02  5.0991666745E-02  3.5082555627E-01
  5.25000E+03  2.9374000352E+00  7.6006896255E+00  5.2403052916E-02  5.1138177845E-02  3.5106908857E-01
  5.25500E+03  2.9406332871E+00  7.5983207454E+00  5.2556288006E-02  5.1284971112E-02  3.5131245042E-01
  5.26000E+03  2.9438800000E+00  7.5959869517E+00  5.2709824416E-02  5.1432044167E-02  3.5155564237E-01
  5.26500E+03  2.9471272077E+00  7.5936560911E+00  5.2863662451E-02  5.1579391840E-02  3.5179866496E-01
  5.27000E+03  2.9503749097E+00  7.5913281572E+00  5.3017802413E-02  5.1727014347E-02  3.5204151874E-01
  5.27500E+03  2.9536231058E+00  7.5890031436E+00  5.3172244608E-02  5.1874911902E-02  3.5228420425E-01
  5.28000E+03  2.9568717955E+00  7.5866810438E+00  5.3326989339E-02  5.2023084720E-02  3.5252672203E-01
  5.28500E+03  2.9601209783E+00  7.5843618514E+00  5.3482036911E-02  5.2171533017E-02  3.5276907263E-01
  5.29000E+03  2.9633706540E+00  7.5820455601E+00  5.3637387627E-02  5.2320257007E-02  3.5301125659E-01
  5.29500E+03  2.9666208221E+00  7.5797321635E+00  5.3793041792E-02  5.2469256904E-02  3.5325327444E-01
  5.30000E+03  2.9698714822E+00  7.5774216552E+00  5.3948999709E-02  5.2618532923E-02  3.5349512672E-01
  5.30500E+03  2.9731226340E+00  7.5751140289E+00  5.4105261683E-02  5.2768085277E-02  3.5373681396E-01
  5.31000E+03  2.9763742770E+00  7.5728092783E+00  5.4261828018E-02  5.2917914181E-02  3.5397833671E-01
  5.31500E+03  2.9796264109E+00  7.5705073972E+00  5.4418699018E-02  5.3068019847E-02  3.5421969548E-01
  5.32000E+03  2.9828790353E+00  7.5682083791E+00  5.4575874987E-02  5.3218402490E-02  3.5446089081E-01
  5.32500E+03  2.9861321497E+00  7.5659122180E+00  5.4733356229E-02  5.3369062323E-02  3.5470192323E-01
  5.33000E+03  2.9893857539E+00  7.5636189076E+00  5.4891143049E-02  5.3519999558E-02  3.5494279327E-01
  5.33500E+03  2.9926398474E+00  7.5613284416E+00  5.5049235751E-02  5.3671214409E-02  3.5518350145E-01
  5.34000E+03  2.9958944298E+00  7.5590408139E+00  5.5207634639E-02  5.3822707087E-02  3.5542404829E-01
  5.34500E+03  2.9991495007E+00  7.5567560183E+00  5.5366340017E-02  5.3974477806E-02  3.5566443433E-01
  5.35000E+03  3.0024050599E+00  7.5544740486E+00  5.5525352189E-02  5.4126526778E-02  3.5590466007E-01
  5.35500E+03  3.0056611068E+00  7.5521948988E+00  5.5684671460E-02  5.4278854214E-02  3.5614472604E-01
  5.36000E+03  3.0089176411E+00  7.5499185627E+00  5.5844298135E-02  5.4431460327E-02  3.5638463277E-01
  5.36500E+03  3.0121746624E+00  7.5476450342E+00  5.6004232516E-02  5.4584345328E-02  3.5662438076E-01
  5.37000E+03  3.0154321703E+00  7.5453743073E+00  5.6164474909E-02  5.4737509428E-02  3.5686397053E-01
  5.37500E+03  3.0186901646E+00  7.5431063758E+00  5.6325025618E-02  5.4890952838E-02  3.5710340260E-01
  5.38000E+03  3.0219486446E+00  7.5408412338E+00  5.6485884947E-02  5.5044675770E-02  3.5734267748E-01
  5.38500E+03  3.0252076102E+00  7.5385788752E+00  5.6647053201E-02  5.5198678435E-02  3.5758179567E-01
  5.39000E+03  3.0284670609E+00  7.5363192941E+00  5.6808530684E-02  5.5352961042E-02  3.5782075770E-01
  5.39500E+03  3.0317269963E+00  7.5340624844E+00  5.6970317700E-02  5.5507523803E-02  3.5805956408E-01
  5.40000E+03  3.0349874161E+00  7.5318084402E+00  5.7132414554E-02  5.5662366927E-02  3.5829821529E-01
  5.40500E+03  3.0382483199E+00  7.5295571555E+00  5.7294821550E-02  5.5817490625E-02  3.5853671186E-01
  5.41000E+03  3.0415097073E+00  7.5273086245E+00  5.7457538992E-02  5.5972895106E-02  3.5877505429E-01
  5.41500E+03  3.0447715779E+00  7.5250628411E+00  5.7620567186E-02  5.6128580579E-02  3.5901324309E-01
  5.42000E+03  3.0480339314E+00  7.5228197996E+00  5.7783906435E-02  5.6284547255E-02  3.5925127874E-01
  5.42500E+03  3.0512967674E+00  7.5205794940E+00  5.7947557044E-02  5.6440795342E-02  3.5948916176E-01
  5.43000E+03  3.0545600855E+00  7.5183419185E+00  5.8111519317E-02  5.6597325049E-02  3.5972689265E-01
  5.43500E+03  3.0578238853E+00  7.5161070673E+00  5.8275793559E-02  5.6754136585E-02  3.5996447190E-01
  5.44000E+03  3.0610881665E+00  7.5138749345E+00  5.8440380074E-02  5.6911230159E-02  3.6020190001E-01
  5.44500E+03  3.0643529287E+00  7.5116455143E+00  5.8605279168E-02  5.7068605978E-02  3.6043917747E-01
  5.45000E+03  3.0676181715E+00  7.5094188010E+00  5.8770491143E-02  5.7226264251E-02  3.6067630478E-01
  5.45500E+03  3.0708838946E+00  7.5071947888E+00  5.8936016306E-02  5.7384205186E-02  3.6091328244E-01
  5.46000E+03  3.0741500975E+00  7.5049734719E+00  5.9101854960E-02  5.7542428991E-02  3.6115011093E-01
  5.46500E+03  3.0774372483E+00  7.5028058085E+00  5.9268007410E-02  5.7700946082E-02  3.6138679075E-01
  5.47000E+03  3.0807335885E+00  7.5006623490E+00  5.9434473961E-02  5.7859750896E-02  3.6162332238E-01
  5.47500E+03  3.0840304429E+00  7.4985214595E+00  5.9601254918E-02  5.8018839329E-02  3.6185970631E-01
  5.48000E+03  3.0873278112E+00  7.4963831344E+00  5.9768722702E-02  5.8178564170E-02  3.6209594303E-01
  5.48500E+03  3.0906256929E+00  7.4942473684E+00  5.9936807580E-02  5.8338859152E-02  3.6233203303E-01
  5.49000E+03  3.0939240878E+00  7.4921141561E+00  6.0105211006E-02  5.8499441289E-02  3.6256797679E-01
  5.49500E+03  3.0972229953E+00  7.4899834921E+00  6.0273933292E-02  5.8660310793E-02  3.6280377478E-01
  5.50000E+03  3.1005224151E+00  7.4878553710E+00  6.0442974749E-02  5.8821467876E-02  3.6303942751E-01
  5.50500E+03  3.1038223468E+00  7.4857297876E+00  6.0612335690E-02  5.8982912750E-02  3.6327493544E-01
  5.51000E+03  3.1071227901E+00  7.4836067364E+00  6.0782016425E-02  5.9144645627E-02  3.6351029905E-01
  5.51500E+03  3.1104237445E+00  7.4814862123E+00  6.0952017268E-02  5.9306666717E-02  3.6374551883E-01
  5.52000E+03  3.1137252096E+00  7.4793682098E+00  6.1122338528E-02  5.9468976233E-02  3.6398059525E-01
  5.52500E+03  3.1170271852E+00  7.4772527237E+00  6.1292980520E-02  5.9631574385E-02  3.6421552878E-01
  5.53000E+03  3.1203296707E+00  7.4751397488E+00  6.1463943553E-02  5.9794461384E-02  3.6445031991E-01
  5.53500E+03  3.1236326659E+00  7.4730292797E+00  6.1635227940E-02  5.9957637440E-02  3.6468496910E-01
  5.54000E+03  3.1269361703E+00  7.4709213113E+00  6.1806833993E-02  6.0121102765E-02  3.6491947683E-01
  5.54500E+03  3.1302401835E+00  7.4688158384E+00  6.1978762024E-02  6.0284857567E-02  3.6515384357E-01
  5.55000E+03  3.1335447052E+00  7.4667128557E+00  6.2151012345E-02  6.0448902057E-02  3.6538806979E-01
  5.55500E+03  3.1368497350E+00  7.4646123581E+00  6.2323585267E-02  6.0613236445E-02  3.6562215596E-01
  5.56000E+03  3.1401552725E+00  7.4625143403E+00  6.2496481102E-02  6.0777860939E-02  3.6585610256E-01
  5.56500E+03  3.1434613173E+00  7.4604187973E+00  6.2669700163E-02  6.0942775750E-02  3.6608991017E-01
  5.57000E+03  3.1467678691E+00  7.4583257239E+00  6.2843242761E-02  6.1107981087E-02  3.6632357926E-01
  5.57500E+03  3.1500749274E+00  7.4562351150E+00  6.3017109209E-02  6.1273477158E-02  3.6655711028E-01
  5.58000E+03  3.1533824920E+00  7.4541469654E+00  6.3191299817E-02  6.1439264171E-02  3.6679050369E-01
  5.58500E+03  3.1566905623E+00  7.4520612701E+00  6.3365814899E-02  6.1605342336E-02  3.6702375993E-01
  5.59000E+03  3.1599991381E+00  7.4499780240E+00  6.3540654767E-02  6.1771711861E-02  3.6725687945E-01
  5.59500E+03  3.1633082190E+00  7.4478972220E+00  6.3715819732E-02  6.1938372953E-02  3.6748986269E-01
  5.60000E+03  3.1666178046E+00  7.4458188591E+00  6.3891310106E-02  6.2105325820E-02  3.6772271011E-01
  5.60500E+03  3.1699278945E+00  7.4437429303E+00  6.4067126203E-02  6.2272570670E-02  3.6795542215E-01
  5.61000E+03  3.1732384884E+00  7.4416694305E+00  6.4243268332E-02  6.2440107710E-02  3.6818799925E-01
  5.61500E+03  3.1765495858E+00  7.4395983548E+00  6.4419736808E-02  6.2607937148E-02  3.6842044185E-01
  5.62000E+03  3.1798611865E+00  7.4375296980E+00  6.4596531942E-02  6.2776059189E-02  3.6865275040E-01
  5.62500E+03  3.1831732899E+00  7.4354634554E+00  6.4773654045E-02  6.2944474042E-02  3.6888492533E-01
  5.63000E+03  3.1864858959E+00  7.4333996218E+00  6.4951103432E-02  6.3113181911E-02  3.6911696709E-01
  5.63500E+03  3.1897990039E+00  7.4313381924E+00  6.5128880412E-02  6.3282183005E-02  3.6934887612E-01
  5.64000E+03  3.1931126137E+00  7.4292791623E+00  6.5306985300E-02  6.3451477527E-02  3.6958065284E-01
  5.64500E+03  3.1964267248E+00  7.4272225265E+00  6.5485418406E-02  6.3621065686E-02  3.6981229770E-01
  5.65000E+03  3.1997413369E+00  7.4251682801E+00  6.5664180044E-02  6.3790947685E-02  3.7004381114E-01
  5.65500E+03  3.2030564496E+00  7.4231164182E+00  6.5843270525E-02  6.3961123730E-02  3.7027519358E-01
  5.66000E+03  3.2063720626E+00  7.4210669359E+00  6.6022690162E-02  6.4131594027E-02  3.7050644545E-01
  5.66500E+03  3.2096881754E+00  7.4190198285E+00  6.6202439267E-02  6.4302358780E-02  3.7073756720E-01
  5.67000E+03  3.2130047878E+00  7.4169750910E+00  6.6382518152E-02  6.4473418195E-02  3.7096855925E-01
  5.67500E+03  3.2163218993E+00  7.4149327187E+00  6.6562927131E-02  6.4644772475E-02  3.7119942204E-01
  5.68000E+03  3.2196429616E+00  7.4129014606E+00  6.6743666514E-02  6.4816423893E-02  3.7143015598E-01
  5.68500E+03  3.2229869326E+00  7.4109292915E+00  6.6924736615E-02  6.4988384076E-02  3.7166076152E-01
  5.69000E+03  3.2263314323E+00  7.4089593802E+00  6.7106137746E-02  6.5160639869E-02  3.7189123907E-01
  5.69500E+03  3.2296764604E+00  7.4069917221E+00  6.7287870219E-02  6.5333191477E-02  3.7212158906E-01
  5.70000E+03  3.2330220165E+00  7.4050263127E+00  6.7469934347E-02  6.5506039103E-02  3.7235181192E-01
  5.70500E+03  3.2363681003E+00  7.4030631474E+00  6.7652330443E-02  6.5679182951E-02  3.7258190807E-01
  5.71000E+03  3.2397147113E+00  7.4011022217E+00  6.7835058817E-02  6.5852623224E-02  3.7281187794E-01
  5.71500E+03  3.2430618491E+00  7.3991435310E+00  6.8018119785E-02  6.6026360127E-02  3.7304172194E-01
  5.72000E+03  3.2464095134E+00  7.3971870709E+00  6.8201513656E-02  6.6200393862E-02  3.7327144050E-01
  5.72500E+03  3.2497577039E+00  7.3952328369E+00  6.8385240745E-02  6.6374724632E-02  3.7350103404E-01
  5.73000E+03  3.2531064201E+00  7.3932808246E+00  6.8569301364E-02  6.6549352639E-02  3.7373050298E-01
  5.73500E+03  3.2564556616E+00  7.3913310293E+00  6.8753707030E-02  6.6724288641E-02  3.7395984773E-01
  5.74000E+03  3.2598054281E+00  7.3893834468E+00  6.8938459680E-02  6.6899534363E-02  3.7418906871E-01
  5.74500E+03  3.2631557193E+00  7.3874380726E+00  6.9123546922E-02  6.7075078043E-02  3.7441816635E-01
  5.75000E+03  3.2665065346E+00  7.3854949022E+00  6.9308969070E-02  6.7250919881E-02  3.7464714105E-01
  5.75500E+03  3.2698578738E+00  7.3835539312E+00  6.9494726437E-02  6.7427060081E-02  3.7487599323E-01
  5.76000E+03  3.2732097365E+00  7.3816151553E+00  6.9680819335E-02  6.7603498843E-02  3.7510472330E-01
  5.76500E+03  3.2765621223E+00  7.3796785701E+00  6.9867248078E-02  6.7780236369E-02  3.7533333169E-01
  5.77000E+03  3.2799150309E+00  7.3777441711E+00  7.0054012978E-02  6.7957272860E-02  3.7556181879E-01
  5.77500E+03  3.2832684618E+00  7.3758119541E+00  7.0241114348E-02  6.8134608517E-02  3.7579018501E-01
  5.78000E+03  3.2866224147E+00  7.3738819146E+00  7.0428552503E-02  6.8312243541E-02  3.7601843078E-01
  5.78500E+03  3.2899768893E+00  7.3719540484E+00  7.0616327754E-02  6.8490178132E-02  3.7624655650E-01
  5.79000E+03  3.2933318851E+00  7.3700283511E+00  7.0804440414E-02  6.8668412491E-02  3.7647456258E-01
  5.79500E+03  3.2966874017E+00  7.3681048184E+00  7.0992890798E-02  6.8846946817E-02  3.7670244942E-01
  5.80000E+03  3.3000434389E+00  7.3661834460E+00  7.1181679217E-02  6.9025781310E-02  3.7693021743E-01
  5.80500E+03  3.3033999963E+00  7.3642642297E+00  7.1370805985E-02  6.9204916170E-02  3.7715786702E-01
  5.81000E+03  3.3067570734E+00  7.3623471651E+00  7.1560271416E-02  6.9384351597E-02  3.7738539859E-01
  5.81500E+03  3.3101146700E+00  7.3604322480E+00  7.1750075821E-02  6.9564087788E-02  3.7761281256E-01
  5.82000E+03  3.3134727856E+00  7.3585194741E+00  7.1940219516E-02  6.9744124944E-02  3.7784010931E-01
  5.82500E+03  3.3168314199E+00  7.3566088393E+00  7.2130702812E-02  6.9924463263E-02  3.7806728925E-01
  5.83000E+03  3.3201905725E+00  7.3547003392E+00  7.2321526023E-02  7.0105102943E-02  3.7829435279E-01
  5.83500E+03  3.3235502430E+00  7.3527939697E+00  7.2512689462E-02  7.0286044183E-02  3.7852130032E-01
  5.84000E+03  3.3269104312E+00  7.3508897266E+00  7.2704193443E-02  7.0467287180E-02  3.7874813225E-01
  5.84500E+03  3.3302711366E+00  7.3489876057E+00  7.2896038278E-02  7.0648832132E-02  3.7897484897E-01
  5.85000E+03  3.3336323588E+00  7.3470876028E+00  7.3088224281E-02  7.0830679238E-02  3.7920145088E-01
  5.85500E+03  3.3369940975E+00  7.3451897137E+00  7.3280751766E-02  7.1012828693E-02  3.7942793839E-01
  5.86000E+03  3.3403563524E+00  7.3432939342E+00  7.3473621045E-02  7.1195280695E-02  3.7965431188E-01
  5.86500E+03  3.3437191231E+00  7.3414002604E+00  7.3666832432E-02  7.1378035441E-02  3.7988057175E-01
  5.87000E+03  3.3470824091E+00  7.3395086879E+00  7.3860386240E-02  7.1561093128E-02  3.8010671840E-01
  5.87500E+03  3.3504462103E+00  7.3376192127E+00  7.4054282783E-02  7.1744453951E-02  3.8033275223E-01
  5.88000E+03  3.3538105261E+00  7.3357318307E+00  7.4248522374E-02  7.1928118107E-02  3.8055867362E-01
  5.88500E+03  3.3571753563E+00  7.3338465378E+00  7.4443105326E-02  7.2112085793E-02  3.8078448297E-01
  5.89000E+03  3.3605407004E+00  7.3319633299E+00  7.4638031954E-02  7.2296357202E-02  3.8101018067E-01
  5.89500E+03  3.3639065582E+00  7.3300822030E+00  7.4833302570E-02  7.2480932532E-02  3.8123576711E-01
  5.90000E+03  3.3672729292E+00  7.3282031529E+00  7.5028917487E-02  7.2665811977E-02  3.8146124268E-01
  5.90500E+03  3.3706398132E+00  7.3263261756E+00  7.5224877020E-02  7.2850995732E-02  3.8168660778E-01
  5.91000E+03  3.3740258754E+00  7.3245000658E+00  7.5421181481E-02  7.3036497590E-02  3.8191186279E-01
  5.91500E+03  3.3774163759E+00  7.3226861497E+00  7.5617831185E-02  7.3222307114E-02  3.8213700810E-01
  5.92000E+03  3.3808074143E+00  7.3208742149E+00  7.5814826445E-02  7.3408421667E-02  3.8236204409E-01
  5.92500E+03  3.3841989903E+00  7.3190642577E+00  7.6012167574E-02  7.3594841444E-02  3.8258697116E-01
  5.93000E+03  3.3875911034E+00  7.3172562741E+00  7.6209854886E-02  7.3781566640E-02  3.8281178969E-01
  5.93500E+03  3.3909837534E+00  7.3154502603E+00  7.6407888695E-02  7.3968597449E-02  3.8303650007E-01
  5.94000E+03  3.3943769399E+00  7.3136462126E+00  7.6606269313E-02  7.4155934064E-02  3.8326110268E-01
  5.94500E+03  3.3977706624E+00  7.3118441271E+00  7.6804997056E-02  7.4343576680E-02  3.8348559791E-01
  5.95000E+03  3.4011649207E+00  7.3100440001E+00  7.7004072235E-02  7.4531525489E-02  3.8370998616E-01
  5.95500E+03  3.4045597143E+00  7.3082458278E+00  7.7203495166E-02  7.4719780686E-02  3.8393426779E-01
  5.96000E+03  3.4079550429E+00  7.3064496064E+00  7.7403266161E-02  7.4908342463E-02  3.8415844315E-01
  5.96500E+03  3.4113509061E+00  7.3046553323E+00  7.7603385535E-02  7.5097211014E-02  3.8438251257E-01
  5.97000E+03  3.4147473036E+00  7.3028630015E+00  7.7803853601E-02  7.5286386530E-02  3.8460647640E-01
  5.97500E+03  3.4181442350E+00  7.3010726105E+00  7.8004670673E-02  7.5475869203E-02  3.8483033500E-01
  5.98000E+03  3.4215417000E+00  7.2992841555E+00  7.8205837064E-02  7.5665659227E-02  3.8505408870E-01
  5.98500E+03  3.4249396981E+00  7.2974976327E+00  7.8407353089E-02  7.5855756793E-02  3.8527773786E-01
  5.99000E+03  3.4283382290E+00  7.2957130386E+00  7.8609219060E-02  7.6046162093E-02  3.8550128280E-01
  5.99500E+03  3.4317372924E+00  7.2939303693E+00  7.8811435293E-02  7.6236875317E-02  3.8572472388E-01
  6.00000E+03  3.4351368879E+00  7.2921496213E+00  7.9014002100E-02  7.6427896657E-02  3.8594806144E-01
  6.00500E+03  3.4385370151E+00  7.2903707908E+00  7.9218235583E-02  7.6620457211E-02  3.8617129582E-01
  6.01000E+03  3.4419376736E+00  7.2885938742E+00  7.9422825933E-02  7.6813331242E-02  3.8639442736E-01
  6.01500E+03  3.4453388632E+00  7.2868188679E+00  7.9627773474E-02  7.7006518946E-02  3.8661745640E-01
  6.02000E+03  3.4487405834E+00  7.2850457681E+00  7.9833078531E-02  7.7200020522E-02  3.8684038328E-01
  6.02500E+03  3.4521428340E+00  7.2832745713E+00  8.0038741429E-02  7.7393836168E-02  3.8706320834E-01
  6.03000E+03  3.4555456144E+00  7.2815052739E+00  8.0244762493E-02  7.7587966081E-02  3.8728593192E-01
  6.03500E+03  3.4589489245E+00  7.2797378722E+00  8.0451142048E-02  7.7782410458E-02  3.8750855435E-01
  6.04000E+03  3.4623527637E+00  7.2779723627E+00  8.0657880418E-02  7.7977169495E-02  3.8773107598E-01
  6.04500E+03  3.4657571319E+00  7.2762087417E+00  8.0864977929E-02  7.8172243390E-02  3.8795349714E-01
  6.05000E+03  3.4691620285E+00  7.2744470057E+00  8.1072434905E-02  7.8367632339E-02  3.8817581816E-01
  6.05500E+03  3.4725674533E+00  7.2726871511E+00  8.1280251672E-02  7.8563336538E-02  3.8839803938E-01
  6.06000E+03  3.4759734059E+00  7.2709291744E+00  8.1488428555E-02  7.8759356183E-02  3.8862016114E-01
  6.06500E+03  3.4793798860E+00  7.2691730719E+00  8.1696965879E-02  7.8955691469E-02  3.8884218377E-01
  6.07000E+03  3.4827868932E+00  7.2674188403E+00  8.1905863968E-02  7.9152342592E-02  3.8906410760E-01
  6.07500E+03  3.4861944271E+00  7.2656664758E+00  8.2115123148E-02  7.9349309747E-02  3.8928593297E-01
  6.08000E+03  3.4896024874E+00  7.2639159750E+00  8.2324743744E-02  7.9546593128E-02  3.8950766021E-01
  6.08500E+03  3.4930110737E+00  7.2621673344E+00  8.2534726081E-02  7.9744192931E-02  3.8972928965E-01
  6.09000E+03  3.4964201857E+00  7.2604205506E+00  8.2745070485E-02  7.9942109350E-02  3.8995082162E-01
  6.09500E+03  3.4998298231E+00  7.2586756199E+00  8.2955777280E-02  8.0140342579E-02  3.9017225646E-01
  6.10000E+03  3.5032399854E+00  7.2569325389E+00  8.3166846791E-02  8.0338892812E-02  3.9039359449E-01
  6.10500E+03  3.5066506724E+00  7.2551913041E+00  8.3378279345E-02  8.0537760242E-02  3.9061483604E-01
  6.11000E+03  3.5100618837E+00  7.2534519121E+00  8.3590075265E-02  8.0736945063E-02  3.9083598144E-01
  6.11500E+03  3.5134736189E+00  7.2517143595E+00  8.3802234878E-02  8.0936447468E-02  3.9105703103E-01
  6.12000E+03  3.5168858777E+00  7.2499786427E+00  8.4014758509E-02  8.1136267650E-02  3.9127798512E-01
  6.12500E+03  3.5202986598E+00  7.2482447583E+00  8.4227646483E-02  8.1336405802E-02  3.9149884405E-01
  6.13000E+03  3.5237119647E+00  7.2465127029E+00  8.4440899125E-02  8.1536862115E-02  3.9171960814E-01
  6.13500E+03  3.5271257922E+00  7.2447824731E+00  8.4654516761E-02  8.1737636783E-02  3.9194027772E-01
  6.14000E+03  3.5305401419E+00  7.2430540655E+00  8.4868499716E-02  8.1938729996E-02  3.9216085312E-01
  6.14500E+03  3.5339692305E+00  7.2413653542E+00  8.5082848316E-02  8.2140154501E-02  3.9238133466E-01
  6.15000E+03  3.5374045695E+00  7.2396936117E+00  8.5297562885E-02  8.2341903098E-02  3.9260172266E-01
  6.15500E+03  3.5408404520E+00  7.2380236132E+00  8.5512643750E-02  8.2543970956E-02  3.9282201745E-01
  6.16000E+03  3.5442768777E+00  7.2363553555E+00  8.5728091236E-02  8.2746358268E-02  3.9304221935E-01
  6.16500E+03  3.5477138462E+00  7.2346888354E+00  8.5943905668E-02  8.2949065224E-02  3.9326232869E-01
  6.17000E+03  3.5511513573E+00  7.2330240497E+00  8.6160087372E-02  8.3152092015E-02  3.9348234579E-01
  6.17500E+03  3.5545894105E+00  7.2313609952E+00  8.6376636674E-02  8.3355438833E-02  3.9370227097E-01
  6.18000E+03  3.5580280055E+00  7.2296996686E+00  8.6593553899E-02  8.3559105868E-02  3.9392210456E-01
  6.18500E+03  3.5614671420E+00  7.2280400668E+00  8.6810839372E-02  8.3763093309E-02  3.9414184686E-01
  6.19000E+03  3.5649068195E+00  7.2263821866E+00  8.7028493420E-02  8.3967401348E-02  3.9436149821E-01
  6.19500E+03  3.5683470378E+00  7.2247260249E+00  8.7246516367E-02  8.4172030174E-02  3.9458105893E-01
  6.20000E+03  3.5717877964E+00  7.2230715784E+00  8.7464908540E-02  8.4376979976E-02  3.9480052933E-01
  6.20500E+03  3.5752290951E+00  7.2214188440E+00  8.7683670264E-02  8.4582250944E-02  3.9501990973E-01
  6.21000E+03  3.5786709335E+00  7.2197678185E+00  8.7902801866E-02  8.4787843267E-02  3.9523920046E-01
  6.21500E+03  3.5821133112E+00  7.2181184989E+00  8.8122303669E-02  8.4993757133E-02  3.9545840182E-01
  6.22000E+03  3.5855562279E+00  7.2164708819E+00  8.8342176002E-02  8.5199992732E-02  3.9567751415E-01
  6.22500E+03  3.5889996832E+00  7.2148249645E+00  8.8562419188E-02  8.5406550250E-02  3.9589653775E-01
  6.23000E+03  3.5924436768E+00  7.2131807436E+00  8.8783033554E-02  8.5613429877E-02  3.9611547294E-01
  6.23500E+03  3.5958882084E+00  7.2115382159E+00  8.9004019426E-02  8.5820631799E-02  3.9633432004E-01
  6.24000E+03  3.5993332775E+00  7.2098973785E+00  8.9225378984E-02  8.6028157929E-02  3.9655307936E-01
  6.24500E+03  3.6027788839E+00  7.2082582282E+00  8.9447111031E-02  8.6236007037E-02  3.9677175122E-01
  6.25000E+03  3.6062250272E+00  7.2066207620E+00  8.9669215572E-02  8.6444179013E-02  3.9699033594E-01
  6.25500E+03  3.6096717070E+00  7.2049849768E+00  8.9891692933E-02  8.6652674042E-02  3.9720883382E-01
  6.26000E+03  3.6131189230E+00  7.2033508694E+00  9.0114543439E-02  8.6861492311E-02  3.9742724519E-01
  6.26500E+03  3.6165666749E+00  7.2017184370E+00  9.0337767418E-02  8.7070634006E-02  3.9764557035E-01
  6.27000E+03  3.6200149624E+00  7.2000876763E+00  9.0561365194E-02  8.7280099315E-02  3.9786380963E-01
  6.27500E+03  3.6234637849E+00  7.1984585844E+00  9.0785337095E-02  8.7489888421E-02  3.9808196332E-01
  6.28000E+03  3.6269131424E+00  7.1968311582E+00  9.1009683445E-02  8.7700001510E-02  3.9830003175E-01
  6.28500E+03  3.6303630343E+00  7.1952053947E+00  9.1234404571E-02  8.7910438769E-02  3.9851801522E-01
  6.29000E+03  3.6338134603E+00  7.1935812908E+00  9.1459500799E-02  8.8121200381E-02  3.9873591405E-01
  6.29500E+03  3.6372644201E+00  7.1919588437E+00  9.1684972456E-02  8.8332286531E-02  3.9895372855E-01
  6.30000E+03  3.6407159135E+00  7.1903380502E+00  9.1910819866E-02  8.8543697404E-02  3.9917145903E-01
  6.30500E+03  3.6441679399E+00  7.1887189073E+00  9.2137043357E-02  8.8755433184E-02  3.9938910580E-01
  6.31000E+03  3.6476204991E+00  7.1871014122E+00  9.2363643255E-02  8.8967494055E-02  3.9960666914E-01
  6.31500E+03  3.6510735907E+00  7.1854855617E+00  9.2590619886E-02  8.9179880200E-02  3.9982414932E-01
  6.32000E+03  3.6545272145E+00  7.1838713530E+00  9.2817973575E-02  8.9392591802E-02  4.0004154662E-01
  6.32500E+03  3.6579813700E+00  7.1822587830E+00  9.3045704650E-02  8.9605629045E-02  4.0025886129E-01
  6.33000E+03  3.6614360569E+00  7.1806478488E+00  9.3273813436E-02  8.9818992112E-02  4.0047609360E-01
  6.33500E+03  3.6648912749E+00  7.1790385475E+00  9.3502300261E-02  9.0032681185E-02  4.0069324382E-01
  6.34000E+03  3.6683470236E+00  7.1774308761E+00  9.3731165449E-02  9.0246696447E-02  4.0091031221E-01
  6.34500E+03  3.6718033028E+00  7.1758248316E+00  9.3960409327E-02  9.0461038079E-02  4.0112729903E-01
  6.35000E+03  3.6752601120E+00  7.1742204112E+00  9.4190032223E-02  9.0675706264E-02  4.0134420456E-01
  6.35500E+03  3.6787174510E+00  7.1726176120E+00  9.4420034461E-02  9.0890701182E-02  4.0156102905E-01
  6.36000E+03  3.6821753194E+00  7.1710164309E+00  9.4650416369E-02  9.1106023015E-02  4.0177777276E-01
  6.36500E+03  3.6856337168E+00  7.1694168652E+00  9.4881178273E-02  9.1321671944E-02  4.0199443597E-01
  6.37000E+03  3.6890926429E+00  7.1678189119E+00  9.5112320500E-02  9.1537648150E-02  4.0221101893E-01
  6.37500E+03  3.6925520975E+00  7.1662225681E+00  9.5343843375E-02  9.1753951814E-02  4.0242752191E-01
  6.38000E+03  3.6960120801E+00  7.1646278309E+00  9.5575747226E-02  9.1970583114E-02  4.0264394516E-01
  6.38500E+03  3.6994725905E+00  7.1630346976E+00  9.5808032378E-02  9.2187542233E-02  4.0286028896E-01
  6.39000E+03  3.7029464496E+00  7.1614775353E+00  9.6040699159E-02  9.2404843054E-02  4.0307655355E-01
  6.39500E+03  3.7064258232E+00  7.1599352461E+00  9.6273747894E-02  9.2622477492E-02  4.0329273921E-01
  6.40000E+03  3.7099057430E+00  7.1583944940E+00  9.6507178911E-02  9.2840440434E-02  4.0350884619E-01
  6.40500E+03  3.7133862086E+00  7.1568552763E+00  9.6740992536E-02  9.3058732058E-02  4.0372487475E-01
  6.41000E+03  3.7168672196E+00  7.1553175904E+00  9.6975189096E-02  9.3277352545E-02  4.0394082516E-01
  6.41500E+03  3.7203487758E+00  7.1537814334E+00  9.7209768917E-02  9.3496302072E-02  4.0415669767E-01
