#
#  ** 60 kVp Tungsten, 0.2mm Gd **
#
#  Based on data from:
#    Hernandez, A.M., Seibert, J.A., Nosratieh, A. and Boone, J.M. (2017), Generation and analysis 
#    of clinically relevant breast imaging x-ray spectra. Med. Phys., 44: 2148-2160
#    https://doi.org/10.1002/mp.12222
#
#  Energy [eV]    Num. photons/(mm^2) per 1 mGy air-KERMA
# --------------------------------------------------------
17250   6.05E+01
17750   1.40E+02
18250   2.97E+02
18750   5.76E+02
19250   1.05E+03
19750   1.83E+03
20250   3.06E+03
20750   4.88E+03
21250   7.46E+03
21750   1.09E+04
22250   1.54E+04
22750   2.11E+04
23250   2.81E+04
23750   3.61E+04
24250   4.48E+04
24750   5.64E+04
25250   6.97E+04
25750   8.52E+04
26250   1.01E+05
26750   1.19E+05
27250   1.37E+05
27750   1.57E+05
28250   1.76E+05
28750   1.95E+05
29250   2.14E+05
29750   2.33E+05
30250   2.58E+05
30750   2.80E+05
31250   3.00E+05
31750   3.27E+05
32250   3.45E+05
32750   3.67E+05
33250   3.84E+05
33750   4.08E+05
34250   4.17E+05
34750   4.32E+05
35250   4.42E+05
35750   4.51E+05
36250   4.65E+05
36750   4.79E+05
37250   4.92E+05
37750   5.06E+05
38250   5.15E+05
38750   5.18E+05
39250   5.24E+05
39750   5.32E+05
40250   5.38E+05
40750   5.31E+05
41250   5.23E+05
41750   5.25E+05
42250   5.21E+05
42750   5.22E+05
43250   5.14E+05
43750   5.16E+05
44250   5.17E+05
44750   5.06E+05
45250   5.07E+05
45750   5.04E+05
46250   4.88E+05
46750   4.81E+05
47250   4.73E+05
47750   4.56E+05
48250   4.38E+05
48750   4.21E+05
49250   4.04E+05
49750   3.90E+05
50250   2.73E+04
50750   2.83E+04
51250   2.95E+04
51750   3.04E+04
52250   3.16E+04
52750   3.18E+04
53250   3.22E+04
53750   3.23E+04
54250   3.19E+04
54750   3.17E+04
55250   3.15E+04
55750   2.99E+04
56250   2.83E+04
56750   2.67E+04
57250   2.45E+04
57750   2.18E+04
58250   1.81E+04
58750   1.41E+04
59250   9.30E+03
59750   3.77E+03
60250   -1.0
