#
#  ** 49 kVp Tungsten, 1.5 mm Aluminum + 2.0 mm polycarbonate filtration (Koning breast CT specifications) **
#
#  Spectrum generated using DIDSR's online tool: (Miguel Lago, 8/28/2023)
#    https://malago86.github.io/spectrumCalculator/
#
#  Based on data from:
#    Hernandez, A.M., Seibert, J.A., Nosratieh, A. and Boone, J.M. (2017), Generation and analysis 
#    of clinically relevant breast imaging x-ray spectra. Med. Phys., 44: 2148-2160
#    https://doi.org/10.1002/mp.12222
#
#  Energy [eV]    Num. photons/(mm^2) per 1 mGy air-KERMA
# --------------------------------------------------------
10250      1.0
10750      3.3
11250     17.4
11750     27.2
12250     48.9
12750     91.0
13250    155.6
13750    255.8
14250    386.3
14750    542.5
15250    721.6
15750    922.3
16250   1129.2
16750   1344.1
17250   1600.5
17750   1847.9
18250   2056.2
18750   2250.5
19250   2453.1
19750   2587.2
20250   2681.6
20750   2751.8
21250   2861.3
21750   2965.3
22250   3002.6
22750   3042.2
23250   3052.3
23750   3033.1
24250   2978.3
24750   2920.2
25250   2855.7
25750   2844.1
26250   2779.6
26750   2744.6
27250   2669.0
27750   2596.9
28250   2501.6
28750   2425.3
29250   2316.6
29750   2208.3
30250   2124.8
30750   2056.7
31250   2008.3
31750   1934.5
32250   1864.8
32750   1798.4
33250   1710.0
33750   1615.0
34250   1523.9
34750   1435.1
35250   1361.9
35750   1298.7
36250   1242.9
36750   1199.9
37250   1130.2
37750   1079.2
38250   1031.9
38750    971.5
39250    898.7
39750    829.6
40250    762.7
40750    713.3
41250    660.5
41750    625.6
42250    581.6
42750    547.9
43250    505.1
43750    471.6
44250    423.0
44750    380.0
45250    345.9
45750    300.6
46250    267.6
46750    226.1
47250    181.1
47750    133.6
48250     84.1
48750     31.0
49000     -1.0
