#
#  ** 49 kVp Tungsten, 0.25mm Cu **
#
#  Based on data from:
#    Hernandez, A.M., Seibert, J.A., Nosratieh, A. and Boone, J.M. (2017), Generation and analysis 
#    of clinically relevant breast imaging x-ray spectra. Med. Phys., 44: 2148-2160
#    https://doi.org/10.1002/mp.12222
#
#  Energy [eV]    Num. photons/(mm^2) per 1 mGy air-KERMA
# --------------------------------------------------------
18250   2.025
18750   3.961
19250   7.237
19750   12.737
20250   21.442
20750   34.387
21250   52.821
21750   77.631
22250   110.020
22750   150.543
23250   200.706
23750   258.300
24250   321.441
24750   404.660
25250   500.267
25750   610.899
26250   723.413
26750   850.096
27250   978.563
27750   1122.507
28250   1255.407
28750   1388.528
29250   1517.771
29750   1652.977
30250   1825.401
30750   1972.533
31250   2113.072
31750   2293.647
32250   2417.253
32750   2560.284
33250   2671.277
33750   2833.396
34250   2888.083
34750   2983.591
35250   3040.182
35750   3097.348
36250   3181.442
36750   3268.518
37250   3348.096
37750   3437.385
38250   3488.878
38750   3500.697
39250   3534.058
39750   3579.847
40250   3607.142
40750   3556.154
41250   3494.680
41750   3502.684
42250   3468.410
42750   3461.562
43250   3405.359
43750   3411.898
44250   3411.598
44750   3332.926
45250   3332.166
45750   3305.642
46250   3196.564
46750   3145.343
47250   3082.013
47750   2968.595
48250   2846.427
48750   2730.953
49250   2616.447
49750   2518.714
50250   2456.979
50750   2373.149
51250   2318.493
51750   2241.532
52250   2185.741
52750   2076.025
53250   1983.010
53750   1877.653
54250   1759.058
54750   1658.961
55250   1565.986
55750   1415.280
56250   1279.140
56750   1149.562
57250   1008.172
57750   859.895
58250   686.613
58750   511.927
59250   324.742
59750   126.662
60250   -1.0
