#[MATERIAL DEFINITION FOR MC-GPU: interaction mean free path and sampling data from PENELOPE 2006]
#[MATERIAL NAME]
# GLANDULAR [Woodard and White 1986, BriJourRad 59]             
#[NOMINAL DENSITY (g/cm^3)]
#   1.06000000
#[NUMBER OF DATA VALUES]
#  23002
#[MEAN FREE PATHS (cm)]
#[Energy (eV)     | Rayleigh        | Compton         | Photoelectric   | TOTAL (+pair prod) (cm) | Rayleigh: max cumul prob F^2]
  5.00000E+03  1.8304530747E+00  7.6364059124E+00  2.5377443188E-02  2.4948644816E-02  3.4842526216E-01
  5.00500E+03  1.8325440127E+00  7.6323384446E+00  2.5454665988E-02  2.5023622808E-02  3.4868221193E-01
  5.01000E+03  1.8346352477E+00  7.6282772015E+00  2.5532046296E-02  2.5098748664E-02  3.4893886264E-01
  5.01500E+03  1.8367267796E+00  7.6242221672E+00  2.5609584274E-02  2.5174022515E-02  3.4919521500E-01
  5.02000E+03  1.8388186080E+00  7.6201733262E+00  2.5687280087E-02  2.5249444493E-02  3.4945126976E-01
  5.02500E+03  1.8409107328E+00  7.6161306628E+00  2.5765133897E-02  2.5325014728E-02  3.4970702767E-01
  5.03000E+03  1.8430031538E+00  7.6120941615E+00  2.5843145868E-02  2.5400733350E-02  3.4996248946E-01
  5.03500E+03  1.8450958705E+00  7.6080638067E+00  2.5921316164E-02  2.5476600490E-02  3.5021765587E-01
  5.04000E+03  1.8471888829E+00  7.6040395831E+00  2.5999644949E-02  2.5552616279E-02  3.5047252764E-01
  5.04500E+03  1.8492821905E+00  7.6000214752E+00  2.6078132386E-02  2.5628780848E-02  3.5072710549E-01
  5.05000E+03  1.8513757933E+00  7.5960094676E+00  2.6156778638E-02  2.5705094326E-02  3.5098139014E-01
  5.05500E+03  1.8535026905E+00  7.5921464552E+00  2.6235583869E-02  2.5781564877E-02  3.5123538233E-01
  5.06000E+03  1.8556340022E+00  7.5883068525E+00  2.6314548243E-02  2.5858185669E-02  3.5148908277E-01
  5.06500E+03  1.8577656561E+00  7.5844729809E+00  2.6393671923E-02  2.5934955847E-02  3.5174249219E-01
  5.07000E+03  1.8598976518E+00  7.5806448263E+00  2.6472955073E-02  2.6011875539E-02  3.5199561129E-01
  5.07500E+03  1.8620299891E+00  7.5768223745E+00  2.6552397856E-02  2.6088944877E-02  3.5224844080E-01
  5.08000E+03  1.8641626676E+00  7.5730056113E+00  2.6632000437E-02  2.6166163992E-02  3.5250098141E-01
  5.08500E+03  1.8662956872E+00  7.5691945228E+00  2.6711762978E-02  2.6243533013E-02  3.5275323385E-01
  5.09000E+03  1.8684290475E+00  7.5653890950E+00  2.6791685643E-02  2.6321052071E-02  3.5300519881E-01
  5.09500E+03  1.8705627482E+00  7.5615893138E+00  2.6871768596E-02  2.6398721296E-02  3.5325687700E-01
  5.10000E+03  1.8726967891E+00  7.5577951653E+00  2.6952012001E-02  2.6476540818E-02  3.5350826911E-01
  5.10500E+03  1.8748311699E+00  7.5540066358E+00  2.7032416021E-02  2.6554510767E-02  3.5375937584E-01
  5.11000E+03  1.8769658902E+00  7.5502237114E+00  2.7112980820E-02  2.6632631274E-02  3.5401019790E-01
  5.11500E+03  1.8791009499E+00  7.5464463783E+00  2.7193706561E-02  2.6710902467E-02  3.5426073596E-01
  5.12000E+03  1.8812363486E+00  7.5426746229E+00  2.7274593409E-02  2.6789324477E-02  3.5451099072E-01
  5.12500E+03  1.8833720861E+00  7.5389084313E+00  2.7355641526E-02  2.6867897433E-02  3.5476096286E-01
  5.13000E+03  1.8855081621E+00  7.5351477901E+00  2.7436851076E-02  2.6946621466E-02  3.5501065307E-01
  5.13500E+03  1.8876445764E+00  7.5313926856E+00  2.7518222224E-02  2.7025496704E-02  3.5526006203E-01
  5.14000E+03  1.8897813285E+00  7.5276431044E+00  2.7599755133E-02  2.7104523278E-02  3.5550919042E-01
  5.14500E+03  1.8919184183E+00  7.5238990329E+00  2.7681449966E-02  2.7183701316E-02  3.5575803892E-01
  5.15000E+03  1.8940558455E+00  7.5201604576E+00  2.7763306887E-02  2.7263030948E-02  3.5600660819E-01
  5.15500E+03  1.8961936098E+00  7.5164273653E+00  2.7845326060E-02  2.7342512304E-02  3.5625489892E-01
  5.16000E+03  1.8983317110E+00  7.5126997425E+00  2.7927507649E-02  2.7422145511E-02  3.5650291176E-01
  5.16500E+03  1.9004701487E+00  7.5089775759E+00  2.8009851817E-02  2.7501930701E-02  3.5675064739E-01
  5.17000E+03  1.9026089227E+00  7.5052608523E+00  2.8092358728E-02  2.7581868000E-02  3.5699810647E-01
  5.17500E+03  1.9047480328E+00  7.5015495585E+00  2.8175028546E-02  2.7661957540E-02  3.5724528965E-01
  5.18000E+03  1.9068874786E+00  7.4978436813E+00  2.8257861434E-02  2.7742199447E-02  3.5749219761E-01
  5.18500E+03  1.9090272598E+00  7.4941432076E+00  2.8340857557E-02  2.7822593852E-02  3.5773883099E-01
  5.19000E+03  1.9111673763E+00  7.4904481244E+00  2.8424017077E-02  2.7903140883E-02  3.5798519045E-01
  5.19500E+03  1.9133078277E+00  7.4867584184E+00  2.8507340159E-02  2.7983840668E-02  3.5823127665E-01
  5.20000E+03  1.9154486138E+00  7.4830740769E+00  2.8590826967E-02  2.8064693337E-02  3.5847709022E-01
  5.20500E+03  1.9175897343E+00  7.4793950868E+00  2.8674477663E-02  2.8145699016E-02  3.5872263183E-01
  5.21000E+03  1.9197311889E+00  7.4757214353E+00  2.8758292413E-02  2.8226857836E-02  3.5896790210E-01
  5.21500E+03  1.9218729774E+00  7.4720531094E+00  2.8842271380E-02  2.8308169925E-02  3.5921290169E-01
  5.22000E+03  1.9240150994E+00  7.4683900964E+00  2.8926414727E-02  2.8389635410E-02  3.5945763124E-01
  5.22500E+03  1.9261575548E+00  7.4647323835E+00  2.9010722618E-02  2.8471254419E-02  3.5970209138E-01
  5.23000E+03  1.9283003433E+00  7.4610799579E+00  2.9095195217E-02  2.8553027081E-02  3.5994628274E-01
  5.23500E+03  1.9304434645E+00  7.4574328070E+00  2.9179832689E-02  2.8634953525E-02  3.6019020597E-01
  5.24000E+03  1.9325869182E+00  7.4537909181E+00  2.9264635196E-02  2.8717033877E-02  3.6043386169E-01
  5.24500E+03  1.9347307043E+00  7.4501542787E+00  2.9349602902E-02  2.8799268265E-02  3.6067725053E-01
  5.25000E+03  1.9368748223E+00  7.4465228761E+00  2.9434735972E-02  2.8881656818E-02  3.6092037311E-01
  5.25500E+03  1.9390399599E+00  7.4429850015E+00  2.9520034569E-02  2.8964205617E-02  3.6116323007E-01
  5.26000E+03  1.9412192742E+00  7.4395110605E+00  2.9605498857E-02  2.9046912880E-02  3.6140582206E-01
  5.26500E+03  1.9433989637E+00  7.4360420393E+00  2.9691129000E-02  2.9129774780E-02  3.6164814979E-01
  5.27000E+03  1.9455790283E+00  7.4325779263E+00  2.9776925161E-02  2.9212791444E-02  3.6189021395E-01
  5.27500E+03  1.9477594675E+00  7.4291187098E+00  2.9862887505E-02  2.9295963001E-02  3.6213201524E-01
  5.28000E+03  1.9499402811E+00  7.4256643783E+00  2.9949016195E-02  2.9379289578E-02  3.6237355433E-01
  5.28500E+03  1.9521214688E+00  7.4222149203E+00  3.0035311395E-02  2.9462771303E-02  3.6261483191E-01
  5.29000E+03  1.9543030303E+00  7.4187703243E+00  3.0121773270E-02  2.9546408303E-02  3.6285584865E-01
  5.29500E+03  1.9564849653E+00  7.4153305788E+00  3.0208401982E-02  2.9630200706E-02  3.6309660523E-01
  5.30000E+03  1.9586672736E+00  7.4118956726E+00  3.0295197696E-02  2.9714148640E-02  3.6333710233E-01
  5.30500E+03  1.9608499548E+00  7.4084655941E+00  3.0382160576E-02  2.9798252231E-02  3.6357734062E-01
  5.31000E+03  1.9630330086E+00  7.4050403322E+00  3.0469290785E-02  2.9882511608E-02  3.6381732076E-01
  5.31500E+03  1.9652164348E+00  7.4016198754E+00  3.0556588488E-02  2.9966926897E-02  3.6405704342E-01
  5.32000E+03  1.9674002331E+00  7.3982042126E+00  3.0644053848E-02  3.0051498225E-02  3.6429650927E-01
  5.32500E+03  1.9695844032E+00  7.3947933324E+00  3.0731687029E-02  3.0136225720E-02  3.6453571896E-01
  5.33000E+03  1.9717689449E+00  7.3913872239E+00  3.0819488196E-02  3.0221109508E-02  3.6477467316E-01
  5.33500E+03  1.9739538577E+00  7.3879858757E+00  3.0907457511E-02  3.0306149717E-02  3.6501337252E-01
  5.34000E+03  1.9761391415E+00  7.3845892769E+00  3.0995595140E-02  3.0391346473E-02  3.6525181768E-01
  5.34500E+03  1.9783247959E+00  7.3811974162E+00  3.1083901245E-02  3.0476699903E-02  3.6549000932E-01
  5.35000E+03  1.9805108207E+00  7.3778102828E+00  3.1172375991E-02  3.0562210133E-02  3.6572794806E-01
  5.35500E+03  1.9826972156E+00  7.3744278656E+00  3.1261019543E-02  3.0647877291E-02  3.6596563456E-01
  5.36000E+03  1.9848839802E+00  7.3710501536E+00  3.1349832062E-02  3.0733701502E-02  3.6620306947E-01
  5.36500E+03  1.9870711144E+00  7.3676771359E+00  3.1438813715E-02  3.0819682893E-02  3.6644025341E-01
  5.37000E+03  1.9892586179E+00  7.3643088017E+00  3.1527964664E-02  3.0905821591E-02  3.6667718704E-01
  5.37500E+03  1.9914464903E+00  7.3609451400E+00  3.1617285074E-02  3.0992117722E-02  3.6691387098E-01
  5.38000E+03  1.9936347314E+00  7.3575861400E+00  3.1706775108E-02  3.1078571411E-02  3.6715030587E-01
  5.38500E+03  1.9958233408E+00  7.3542317911E+00  3.1796434931E-02  3.1165182785E-02  3.6738649234E-01
  5.39000E+03  1.9980123184E+00  7.3508820823E+00  3.1886264706E-02  3.1251951970E-02  3.6762243102E-01
  5.39500E+03  2.0002016639E+00  7.3475370031E+00  3.1976264598E-02  3.1338879091E-02  3.6785812254E-01
  5.40000E+03  2.0023913768E+00  7.3441965427E+00  3.2066434771E-02  3.1425964276E-02  3.6809356752E-01
  5.40500E+03  2.0045814571E+00  7.3408606904E+00  3.2156775388E-02  3.1513207649E-02  3.6832876658E-01
  5.41000E+03  2.0067719044E+00  7.3375294357E+00  3.2247286613E-02  3.1600609336E-02  3.6856372035E-01
  5.41500E+03  2.0089627183E+00  7.3342027680E+00  3.2337968611E-02  3.1688169462E-02  3.6879842943E-01
  5.42000E+03  2.0111538988E+00  7.3308806768E+00  3.2428821546E-02  3.1775888154E-02  3.6903289445E-01
  5.42500E+03  2.0133454453E+00  7.3275631515E+00  3.2519845581E-02  3.1863765536E-02  3.6926711601E-01
  5.43000E+03  2.0155373578E+00  7.3242501816E+00  3.2611040880E-02  3.1951801735E-02  3.6950109473E-01
  5.43500E+03  2.0177296359E+00  7.3209417568E+00  3.2702407609E-02  3.2039996874E-02  3.6973483121E-01
  5.44000E+03  2.0199222794E+00  7.3176378666E+00  3.2793945929E-02  3.2128351080E-02  3.6996832607E-01
  5.44500E+03  2.0221152879E+00  7.3143385006E+00  3.2885656007E-02  3.2216864477E-02  3.7020157989E-01
  5.45000E+03  2.0243086612E+00  7.3110436485E+00  3.2977538005E-02  3.2305537191E-02  3.7043459330E-01
  5.45500E+03  2.0265023990E+00  7.3077533000E+00  3.3069592088E-02  3.2394369347E-02  3.7066736687E-01
  5.46000E+03  2.0286965010E+00  7.3044674448E+00  3.3161818420E-02  3.2483361068E-02  3.7089990122E-01
  5.46500E+03  2.0309133819E+00  7.3012808279E+00  3.3254217165E-02  3.2572520132E-02  3.7113219694E-01
  5.47000E+03  2.0331401661E+00  7.2981386609E+00  3.3346788487E-02  3.2661842337E-02  3.7136425461E-01
  5.47500E+03  2.0353673541E+00  7.2950007151E+00  3.3439532550E-02  3.2751324577E-02  3.7159607483E-01
  5.48000E+03  2.0375949454E+00  7.2918669812E+00  3.3532830704E-02  3.2841332603E-02  3.7182765819E-01
  5.48500E+03  2.0398229398E+00  7.2887374495E+00  3.3626611299E-02  3.2931797571E-02  3.7205900527E-01
  5.49000E+03  2.0420513371E+00  7.2856121106E+00  3.3720568347E-02  3.3022425927E-02  3.7229011664E-01
  5.49500E+03  2.0442801368E+00  7.2824909551E+00  3.3814702019E-02  3.3113217799E-02  3.7252099259E-01
  5.50000E+03  2.0465093387E+00  7.2793739735E+00  3.3909012485E-02  3.3204173318E-02  3.7275163369E-01
  5.50500E+03  2.0487389425E+00  7.2762611566E+00  3.4003499917E-02  3.3295292614E-02  3.7298204057E-01
  5.51000E+03  2.0509689480E+00  7.2731524950E+00  3.4098164486E-02  3.3386575817E-02  3.7321221390E-01
  5.51500E+03  2.0531993547E+00  7.2700479793E+00  3.4193006362E-02  3.3478023057E-02  3.7344215433E-01
  5.52000E+03  2.0554301625E+00  7.2669476003E+00  3.4288025715E-02  3.3569634463E-02  3.7367186251E-01
  5.52500E+03  2.0576613711E+00  7.2638513488E+00  3.4383222718E-02  3.3661410166E-02  3.7390133909E-01
  5.53000E+03  2.0598929801E+00  7.2607592154E+00  3.4478597541E-02  3.3753350294E-02  3.7413058470E-01
  5.53500E+03  2.0621249893E+00  7.2576711911E+00  3.4574150354E-02  3.3845454978E-02  3.7435959999E-01
  5.54000E+03  2.0643573983E+00  7.2545872667E+00  3.4669881329E-02  3.3937724347E-02  3.7458838559E-01
  5.54500E+03  2.0665902069E+00  7.2515074329E+00  3.4765790637E-02  3.4030158530E-02  3.7481694215E-01
  5.55000E+03  2.0688234149E+00  7.2484316808E+00  3.4861878448E-02  3.4122757656E-02  3.7504527030E-01
  5.55500E+03  2.0710570218E+00  7.2453600011E+00  3.4958144933E-02  3.4215521855E-02  3.7527337067E-01
  5.56000E+03  2.0732910274E+00  7.2422923850E+00  3.5054590264E-02  3.4308451256E-02  3.7550124389E-01
  5.56500E+03  2.0755254315E+00  7.2392288233E+00  3.5151214611E-02  3.4401545987E-02  3.7572889059E-01
  5.57000E+03  2.0777602337E+00  7.2361693071E+00  3.5248018145E-02  3.4494806179E-02  3.7595631138E-01
  5.57500E+03  2.0799954338E+00  7.2331138274E+00  3.5345001037E-02  3.4588231959E-02  3.7618350689E-01
  5.58000E+03  2.0822310314E+00  7.2300623752E+00  3.5442163458E-02  3.4681823456E-02  3.7641047774E-01
  5.58500E+03  2.0844670264E+00  7.2270149417E+00  3.5539505580E-02  3.4775580799E-02  3.7663722455E-01
  5.59000E+03  2.0867034183E+00  7.2239715180E+00  3.5637027573E-02  3.4869504117E-02  3.7686374793E-01
  5.59500E+03  2.0889402070E+00  7.2209320951E+00  3.5734729607E-02  3.4963593539E-02  3.7709004850E-01
  5.60000E+03  2.0911773920E+00  7.2178966644E+00  3.5832611855E-02  3.5057849191E-02  3.7731612686E-01
  5.60500E+03  2.0934149733E+00  7.2148652169E+00  3.5930674487E-02  3.5152271204E-02  3.7754198362E-01
  5.61000E+03  2.0956529504E+00  7.2118377439E+00  3.6028917675E-02  3.5246859705E-02  3.7776761938E-01
  5.61500E+03  2.0978913230E+00  7.2088142367E+00  3.6127341588E-02  3.5341614822E-02  3.7799303475E-01
  5.62000E+03  2.1001300910E+00  7.2057946865E+00  3.6225946399E-02  3.5436536683E-02  3.7821823034E-01
  5.62500E+03  2.1023692540E+00  7.2027790847E+00  3.6324732278E-02  3.5531625417E-02  3.7844320673E-01
  5.63000E+03  2.1046088117E+00  7.1997674226E+00  3.6423699396E-02  3.5626881151E-02  3.7866796452E-01
  5.63500E+03  2.1068487639E+00  7.1967596915E+00  3.6522847925E-02  3.5722304014E-02  3.7889250431E-01
  5.64000E+03  2.1090891102E+00  7.1937558828E+00  3.6622178036E-02  3.5817894132E-02  3.7911682670E-01
  5.64500E+03  2.1113298505E+00  7.1907559880E+00  3.6721689899E-02  3.5913651633E-02  3.7934093225E-01
  5.65000E+03  2.1135709843E+00  7.1877599985E+00  3.6821383685E-02  3.6009576646E-02  3.7956482158E-01
  5.65500E+03  2.1158125115E+00  7.1847679057E+00  3.6921259567E-02  3.6105669296E-02  3.7978849525E-01
  5.66000E+03  2.1180544318E+00  7.1817797012E+00  3.7021317715E-02  3.6201929713E-02  3.8001195386E-01
  5.66500E+03  2.1202967448E+00  7.1787953764E+00  3.7121558300E-02  3.6298358023E-02  3.8023519798E-01
  5.67000E+03  2.1225394503E+00  7.1758149229E+00  3.7221981493E-02  3.6394954353E-02  3.8045822820E-01
  5.67500E+03  2.1247825481E+00  7.1728383323E+00  3.7322587465E-02  3.6491718830E-02  3.8068104508E-01
  5.68000E+03  2.1270299528E+00  7.1698821208E+00  3.7423376388E-02  3.6588653171E-02  3.8090364921E-01
  5.68500E+03  2.1293031661E+00  7.1670368306E+00  3.7524348433E-02  3.6685766276E-02  3.8112604114E-01
  5.69000E+03  2.1315768073E+00  7.1641951695E+00  3.7625503771E-02  3.6783048009E-02  3.8134822147E-01
  5.69500E+03  2.1338508760E+00  7.1613571295E+00  3.7726842573E-02  3.6880498499E-02  3.8157019074E-01
  5.70000E+03  2.1361253719E+00  7.1585227029E+00  3.7828365010E-02  3.6978117871E-02  3.8179194953E-01
  5.70500E+03  2.1384002948E+00  7.1556918820E+00  3.7930071253E-02  3.7075906254E-02  3.8201349841E-01
  5.71000E+03  2.1406756442E+00  7.1528646589E+00  3.8031961475E-02  3.7173863773E-02  3.8223483792E-01
  5.71500E+03  2.1429514201E+00  7.1500410260E+00  3.8134035845E-02  3.7271990557E-02  3.8245596864E-01
  5.72000E+03  2.1452276219E+00  7.1472209755E+00  3.8236294535E-02  3.7370286731E-02  3.8267689112E-01
  5.72500E+03  2.1475042495E+00  7.1444044999E+00  3.8338737717E-02  3.7468752423E-02  3.8289760591E-01
  5.73000E+03  2.1497813026E+00  7.1415915914E+00  3.8441365562E-02  3.7567387759E-02  3.8311811357E-01
  5.73500E+03  2.1520587808E+00  7.1387822425E+00  3.8544178240E-02  3.7666192866E-02  3.8333841465E-01
  5.74000E+03  2.1543366839E+00  7.1359764455E+00  3.8647175924E-02  3.7765167869E-02  3.8355850970E-01
  5.74500E+03  2.1566150116E+00  7.1331741928E+00  3.8750358784E-02  3.7864312897E-02  3.8377839926E-01
  5.75000E+03  2.1588937636E+00  7.1303754769E+00  3.8853726992E-02  3.7963628074E-02  3.8399808389E-01
  5.75500E+03  2.1611729396E+00  7.1275802903E+00  3.8957280719E-02  3.8063113527E-02  3.8421756412E-01
  5.76000E+03  2.1634525393E+00  7.1247886254E+00  3.9061020137E-02  3.8162769383E-02  3.8443684050E-01
  5.76500E+03  2.1657325624E+00  7.1220004748E+00  3.9164945416E-02  3.8262595766E-02  3.8465591356E-01
  5.77000E+03  2.1680130087E+00  7.1192158310E+00  3.9269056728E-02  3.8362592803E-02  3.8487478385E-01
  5.77500E+03  2.1702938778E+00  7.1164346866E+00  3.9373354245E-02  3.8462760621E-02  3.8509345190E-01
  5.78000E+03  2.1725751695E+00  7.1136570340E+00  3.9477838137E-02  3.8563099344E-02  3.8531191824E-01
  5.78500E+03  2.1748568834E+00  7.1108828660E+00  3.9582508577E-02  3.8663609098E-02  3.8553018340E-01
  5.79000E+03  2.1771390194E+00  7.1081121752E+00  3.9687365734E-02  3.8764290009E-02  3.8574824792E-01
  5.79500E+03  2.1794215770E+00  7.1053449541E+00  3.9792409782E-02  3.8865142202E-02  3.8596611232E-01
  5.80000E+03  2.1817045561E+00  7.1025811955E+00  3.9897640891E-02  3.8966165803E-02  3.8618377714E-01
  5.80500E+03  2.1839879563E+00  7.0998208921E+00  4.0003059232E-02  3.9067360937E-02  3.8640124288E-01
  5.81000E+03  2.1862717773E+00  7.0970640365E+00  4.0108664977E-02  3.9168727729E-02  3.8661851008E-01
  5.81500E+03  2.1885560189E+00  7.0943106215E+00  4.0214458298E-02  3.9270266304E-02  3.8683557926E-01
  5.82000E+03  2.1908406807E+00  7.0915606399E+00  4.0320439365E-02  3.9371976788E-02  3.8705245093E-01
  5.82500E+03  2.1931257626E+00  7.0888140844E+00  4.0426608351E-02  3.9473859305E-02  3.8726912561E-01
  5.83000E+03  2.1954112641E+00  7.0860709478E+00  4.0532965426E-02  3.9575913980E-02  3.8748560382E-01
  5.83500E+03  2.1976971851E+00  7.0833312229E+00  4.0639510762E-02  3.9678140937E-02  3.8770188607E-01
  5.84000E+03  2.1999835252E+00  7.0805949026E+00  4.0746244531E-02  3.9780540302E-02  3.8791797288E-01
  5.84500E+03  2.2022702842E+00  7.0778619797E+00  4.0853166904E-02  3.9883112199E-02  3.8813386474E-01
  5.85000E+03  2.2045574618E+00  7.0751324472E+00  4.0960278052E-02  3.9985856753E-02  3.8834956218E-01
  5.85500E+03  2.2068450576E+00  7.0724062979E+00  4.1067578148E-02  4.0088774087E-02  3.8856506569E-01
  5.86000E+03  2.2091330715E+00  7.0696835247E+00  4.1175067362E-02  4.0191864327E-02  3.8878037579E-01
  5.86500E+03  2.2114215031E+00  7.0669641206E+00  4.1282745865E-02  4.0295127595E-02  3.8899549296E-01
  5.87000E+03  2.2137103522E+00  7.0642480785E+00  4.1390613830E-02  4.0398564018E-02  3.8921041772E-01
  5.87500E+03  2.2159996184E+00  7.0615353915E+00  4.1498671429E-02  4.0502173717E-02  3.8942515057E-01
  5.88000E+03  2.2182893015E+00  7.0588260525E+00  4.1606918831E-02  4.0605956818E-02  3.8963969200E-01
  5.88500E+03  2.2205794013E+00  7.0561200545E+00  4.1715356210E-02  4.0709913444E-02  3.8985404250E-01
  5.89000E+03  2.2228699174E+00  7.0534173907E+00  4.1823983736E-02  4.0814043718E-02  3.9006820258E-01
  5.89500E+03  2.2251608496E+00  7.0507180541E+00  4.1932801581E-02  4.0918347766E-02  3.9028217272E-01
  5.90000E+03  2.2274521975E+00  7.0480220377E+00  4.2041809917E-02  4.1022825709E-02  3.9049595341E-01
  5.90500E+03  2.2297439609E+00  7.0453293347E+00  4.2151008916E-02  4.1127477671E-02  3.9070954515E-01
  5.91000E+03  2.2320582365E+00  7.0427336208E+00  4.2260398748E-02  4.1232314529E-02  3.9092294842E-01
  5.91500E+03  2.2343775763E+00  7.0401606267E+00  4.2369979585E-02  4.1337327996E-02  3.9113616371E-01
  5.92000E+03  2.2366973634E+00  7.0375907456E+00  4.2479751600E-02  4.1442515958E-02  3.9134919150E-01
  5.92500E+03  2.2390175974E+00  7.0350239710E+00  4.2589714963E-02  4.1547878540E-02  3.9156203227E-01
  5.93000E+03  2.2413382781E+00  7.0324602964E+00  4.2699869846E-02  4.1653415863E-02  3.9177468652E-01
  5.93500E+03  2.2436594052E+00  7.0298997157E+00  4.2810216421E-02  4.1759128052E-02  3.9198715492E-01
  5.94000E+03  2.2459809784E+00  7.0273422224E+00  4.2920754860E-02  4.1865015231E-02  3.9219943806E-01
  5.94500E+03  2.2483029973E+00  7.0247878101E+00  4.3031485334E-02  4.1971077521E-02  3.9241153645E-01
  5.95000E+03  2.2506254618E+00  7.0222364727E+00  4.3142408014E-02  4.2077315047E-02  3.9262345065E-01
  5.95500E+03  2.2529483714E+00  7.0196882039E+00  4.3253523073E-02  4.2183727931E-02  3.9283518117E-01
  5.96000E+03  2.2552717261E+00  7.0171429973E+00  4.3364830682E-02  4.2290316297E-02  3.9304672854E-01
  5.96500E+03  2.2575955253E+00  7.0146008467E+00  4.3476331013E-02  4.2397080266E-02  3.9325809330E-01
  5.97000E+03  2.2599197689E+00  7.0120617460E+00  4.3588024238E-02  4.2504019963E-02  3.9346927595E-01
  5.97500E+03  2.2622444566E+00  7.0095256888E+00  4.3699910527E-02  4.2611135509E-02  3.9368027703E-01
  5.98000E+03  2.2645695880E+00  7.0069926691E+00  4.3811990054E-02  4.2718427027E-02  3.9389109705E-01
  5.98500E+03  2.2668951630E+00  7.0044626806E+00  4.3924262988E-02  4.2825894640E-02  3.9410173653E-01
  5.99000E+03  2.2692211811E+00  7.0019357171E+00  4.4036729504E-02  4.2933538469E-02  3.9431219599E-01
  5.99500E+03  2.2715476422E+00  6.9994117726E+00  4.4149389771E-02  4.3041358638E-02  3.9452247593E-01
  6.00000E+03  2.2738745459E+00  6.9968908409E+00  4.4262243962E-02  4.3149355268E-02  3.9473257689E-01
  6.00500E+03  2.2762018920E+00  6.9943729159E+00  4.4375793400E-02  4.3258004703E-02  3.9494249935E-01
  6.01000E+03  2.2785296801E+00  6.9918579916E+00  4.4489539245E-02  4.3366832788E-02  3.9515224384E-01
  6.01500E+03  2.2808579100E+00  6.9893460618E+00  4.4603481674E-02  4.3475839648E-02  3.9536181086E-01
  6.02000E+03  2.2831865814E+00  6.9868371205E+00  4.4717620863E-02  4.3585025406E-02  3.9557120091E-01
  6.02500E+03  2.2855156940E+00  6.9843311617E+00  4.4831956987E-02  4.3694390189E-02  3.9578041450E-01
  6.03000E+03  2.2878452476E+00  6.9818281794E+00  4.4946490222E-02  4.3803934121E-02  3.9598945213E-01
  6.03500E+03  2.2901752418E+00  6.9793281675E+00  4.5061220745E-02  4.3913657327E-02  3.9619831430E-01
  6.04000E+03  2.2925056764E+00  6.9768311201E+00  4.5176148730E-02  4.4023559930E-02  3.9640700150E-01
  6.04500E+03  2.2948365511E+00  6.9743370312E+00  4.5291274354E-02  4.4133642057E-02  3.9661551424E-01
  6.05000E+03  2.2971678656E+00  6.9718458949E+00  4.5406597794E-02  4.4243903830E-02  3.9682385301E-01
  6.05500E+03  2.2994996196E+00  6.9693577052E+00  4.5522119224E-02  4.4354345375E-02  3.9703201829E-01
  6.06000E+03  2.3018318128E+00  6.9668724563E+00  4.5637838821E-02  4.4464966815E-02  3.9724001059E-01
  6.06500E+03  2.3041644450E+00  6.9643901422E+00  4.5753756760E-02  4.4575768275E-02  3.9744783038E-01
  6.07000E+03  2.3064975159E+00  6.9619107570E+00  4.5869873219E-02  4.4686749879E-02  3.9765547817E-01
  6.07500E+03  2.3088310253E+00  6.9594342949E+00  4.5986188372E-02  4.4797911750E-02  3.9786295442E-01
  6.08000E+03  2.3111649727E+00  6.9569607500E+00  4.6102702396E-02  4.4909254012E-02  3.9807025964E-01
  6.08500E+03  2.3134993580E+00  6.9544901166E+00  4.6219415466E-02  4.5020776790E-02  3.9827739430E-01
  6.09000E+03  2.3158341809E+00  6.9520223887E+00  4.6336327760E-02  4.5132480206E-02  3.9848435887E-01
  6.09500E+03  2.3181694410E+00  6.9495575606E+00  4.6453439452E-02  4.5244364384E-02  3.9869115385E-01
  6.10000E+03  2.3205051382E+00  6.9470956265E+00  4.6570750719E-02  4.5356429447E-02  3.9889777971E-01
  6.10500E+03  2.3228412722E+00  6.9446365807E+00  4.6688261737E-02  4.5468675519E-02  3.9910423692E-01
  6.11000E+03  2.3251778426E+00  6.9421804173E+00  4.6805972682E-02  4.5581102724E-02  3.9931052596E-01
  6.11500E+03  2.3275148492E+00  6.9397271307E+00  4.6923883729E-02  4.5693711183E-02  3.9951664730E-01
  6.12000E+03  2.3298522917E+00  6.9372767152E+00  4.7041995056E-02  4.5806501020E-02  3.9972260141E-01
  6.12500E+03  2.3321901698E+00  6.9348291649E+00  4.7160306838E-02  4.5919472359E-02  3.9992838876E-01
  6.13000E+03  2.3345284833E+00  6.9323844744E+00  4.7278819252E-02  4.6032625321E-02  4.0013400982E-01
  6.13500E+03  2.3368672320E+00  6.9299426378E+00  4.7397532472E-02  4.6145960030E-02  4.0033946506E-01
  6.14000E+03  2.3392064154E+00  6.9275036495E+00  4.7516446677E-02  4.6259476607E-02  4.0054475494E-01
  6.14500E+03  2.3415633990E+00  6.9251412501E+00  4.7635562041E-02  4.6373185295E-02  4.0074987993E-01
  6.15000E+03  2.3439278159E+00  6.9228111714E+00  4.7754878740E-02  4.6487080255E-02  4.0095484048E-01
  6.15500E+03  2.3462926959E+00  6.9204837693E+00  4.7874396952E-02  4.6601157565E-02  4.0115963705E-01
  6.16000E+03  2.3486580387E+00  6.9181590387E+00  4.7994116852E-02  4.6715417345E-02  4.0136427011E-01
  6.16500E+03  2.3510238439E+00  6.9158369742E+00  4.8114038616E-02  4.6829859720E-02  4.0156874011E-01
  6.17000E+03  2.3533901114E+00  6.9135175706E+00  4.8234162421E-02  4.6944484811E-02  4.0177304751E-01
  6.17500E+03  2.3557568409E+00  6.9112008228E+00  4.8354488442E-02  4.7059292741E-02  4.0197719275E-01
  6.18000E+03  2.3581240319E+00  6.9088867256E+00  4.8475016857E-02  4.7174283633E-02  4.0218117630E-01
  6.18500E+03  2.3604916844E+00  6.9065752737E+00  4.8595747840E-02  4.7289457608E-02  4.0238499861E-01
  6.19000E+03  2.3628597979E+00  6.9042664621E+00  4.8716681569E-02  4.7404814789E-02  4.0258866011E-01
  6.19500E+03  2.3652283722E+00  6.9019602856E+00  4.8837818219E-02  4.7520355297E-02  4.0279216127E-01
  6.20000E+03  2.3675974071E+00  6.8996567390E+00  4.8959157968E-02  4.7636079256E-02  4.0299550253E-01
  6.20500E+03  2.3699669021E+00  6.8973558172E+00  4.9080700990E-02  4.7751986786E-02  4.0319868433E-01
  6.21000E+03  2.3723368572E+00  6.8950575152E+00  4.9202447463E-02  4.7868078009E-02  4.0340170712E-01
  6.21500E+03  2.3747072719E+00  6.8927618278E+00  4.9324397563E-02  4.7984353047E-02  4.0360457133E-01
  6.22000E+03  2.3770781460E+00  6.8904687500E+00  4.9446551466E-02  4.8100812022E-02  4.0380727742E-01
  6.22500E+03  2.3794494792E+00  6.8881782767E+00  4.9568909348E-02  4.8217455054E-02  4.0400982581E-01
  6.23000E+03  2.3818212712E+00  6.8858904028E+00  4.9691471385E-02  4.8334282266E-02  4.0421221695E-01
  6.23500E+03  2.3841935218E+00  6.8836051234E+00  4.9814237755E-02  4.8451293779E-02  4.0441445127E-01
  6.24000E+03  2.3865662307E+00  6.8813224334E+00  4.9937208633E-02  4.8568489713E-02  4.0461652922E-01
  6.24500E+03  2.3889393976E+00  6.8790423279E+00  5.0060384195E-02  4.8685870190E-02  4.0481845121E-01
  6.25000E+03  2.3913130221E+00  6.8767648017E+00  5.0183764619E-02  4.8803435330E-02  4.0502021769E-01
  6.25500E+03  2.3936871042E+00  6.8744898499E+00  5.0307350079E-02  4.8921185255E-02  4.0522182908E-01
  6.26000E+03  2.3960616433E+00  6.8722174677E+00  5.0431140754E-02  4.9039120085E-02  4.0542328582E-01
  6.26500E+03  2.3984366394E+00  6.8699476499E+00  5.0555136819E-02  4.9157239940E-02  4.0562458833E-01
  6.27000E+03  2.4008120921E+00  6.8676803918E+00  5.0679338450E-02  4.9275544943E-02  4.0582573704E-01
  6.27500E+03  2.4031880011E+00  6.8654156882E+00  5.0803745825E-02  4.9394035212E-02  4.0602673237E-01
  6.28000E+03  2.4055643661E+00  6.8631535345E+00  5.0928359118E-02  4.9512710868E-02  4.0622757475E-01
  6.28500E+03  2.4079411870E+00  6.8608939256E+00  5.1053178508E-02  4.9631572031E-02  4.0642826461E-01
  6.29000E+03  2.4103184633E+00  6.8586368566E+00  5.1178204170E-02  4.9750618822E-02  4.0662880235E-01
  6.29500E+03  2.4126961949E+00  6.8563823228E+00  5.1303436280E-02  4.9869851360E-02  4.0682918841E-01
  6.30000E+03  2.4150743814E+00  6.8541303192E+00  5.1428875016E-02  4.9989269766E-02  4.0702942320E-01
  6.30500E+03  2.4174530226E+00  6.8518808410E+00  5.1554520553E-02  5.0108874159E-02  4.0722950714E-01
  6.31000E+03  2.4198321182E+00  6.8496338833E+00  5.1680373069E-02  5.0228664659E-02  4.0742944064E-01
  6.31500E+03  2.4222116679E+00  6.8473894414E+00  5.1806432739E-02  5.0348641385E-02  4.0762922413E-01
  6.32000E+03  2.4245916715E+00  6.8451475105E+00  5.1932699741E-02  5.0468804458E-02  4.0782885801E-01
  6.32500E+03  2.4269721287E+00  6.8429080857E+00  5.2059174250E-02  5.0589153995E-02  4.0802834269E-01
  6.33000E+03  2.4293530392E+00  6.8406711622E+00  5.2185856443E-02  5.0709690118E-02  4.0822767859E-01
  6.33500E+03  2.4317344028E+00  6.8384367354E+00  5.2312746497E-02  5.0830412944E-02  4.0842686611E-01
  6.34000E+03  2.4341162191E+00  6.8362048004E+00  5.2439844588E-02  5.0951322594E-02  4.0862590568E-01
  6.34500E+03  2.4364984879E+00  6.8339753525E+00  5.2567150893E-02  5.1072419185E-02  4.0882479777E-01
  6.35000E+03  2.4388812090E+00  6.8317483870E+00  5.2694665589E-02  5.1193702837E-02  4.0902354283E-01
  6.35500E+03  2.4412643820E+00  6.8295238991E+00  5.2822388851E-02  5.1315173669E-02  4.0922214127E-01
  6.36000E+03  2.4436480067E+00  6.8273018842E+00  5.2950320858E-02  5.1436831799E-02  4.0942059355E-01
  6.36500E+03  2.4460320828E+00  6.8250823376E+00  5.3078461784E-02  5.1558677346E-02  4.0961890007E-01
  6.37000E+03  2.4484166100E+00  6.8228652546E+00  5.3206811807E-02  5.1680710429E-02  4.0981706127E-01
  6.37500E+03  2.4508015882E+00  6.8206506305E+00  5.3335371104E-02  5.1802931165E-02  4.1001507757E-01
  6.38000E+03  2.4531870169E+00  6.8184384607E+00  5.3464139850E-02  5.1925339673E-02  4.1021294939E-01
  6.38500E+03  2.4555728960E+00  6.8162287405E+00  5.3593118224E-02  5.2047936071E-02  4.1041067716E-01
  6.39000E+03  2.4579751795E+00  6.8140891876E+00  5.3722306400E-02  5.2170731634E-02  4.1060826130E-01
  6.39500E+03  2.4603841204E+00  6.8119782162E+00  5.3851704557E-02  5.2293719751E-02  4.1080570222E-01
  6.40000E+03  2.4627935367E+00  6.8098695478E+00  5.3981312871E-02  5.2416896230E-02  4.1100300034E-01
  6.40500E+03  2.4652034281E+00  6.8077631781E+00  5.4111131517E-02  5.2540261190E-02  4.1120015609E-01
  6.41000E+03  2.4676137943E+00  6.8056591029E+00  5.4241160674E-02  5.2663814748E-02  4.1139716987E-01
  6.41500E+03  2.4700246351E+00  6.8035573178E+00  5.4371400518E-02  5.2787557024E-02  4.1159404210E-01
