#[MATERIAL DEFINITION FOR MC-GPU: interaction mean free path and sampling data from PENELOPE 2006]
#[MATERIAL NAME]
# Hydroxyapatite, Ca5(PO4)3(OH)                                 
#[NOMINAL DENSITY (g/cm^3)]
#   3.16000000
#[NUMBER OF DATA VALUES]
#  23002
#[MEAN FREE PATHS (cm) (ie, average distance between interactions)]
#[Energy (eV)     | Rayleigh        | Compton         | Photoelectric   | TOTAL (+pair prod) (cm) | Rayleigh: max cumul prob F^2]
  5.0000000000E+03  2.7121230153E-01  3.9032734833E+00  1.0174945032E-03  1.0134282940E-03  2.3532602865E-01
  5.0050000000E+03  2.7144800892E-01  3.9006171716E+00  1.0202129811E-03  1.0161281844E-03  2.3557858260E-01
  5.0100000000E+03  2.7168368550E-01  3.8979653173E+00  1.0229359848E-03  1.0188325340E-03  2.3583105212E-01
  5.0150000000E+03  2.7191933130E-01  3.8953179084E+00  1.0256635173E-03  1.0215413455E-03  2.3608343724E-01
  5.0200000000E+03  2.7215494637E-01  3.8926749330E+00  1.0283955816E-03  1.0242546217E-03  2.3633573801E-01
  5.0250000000E+03  2.7239053072E-01  3.8900363793E+00  1.0311321807E-03  1.0269723654E-03  2.3658795448E-01
  5.0300000000E+03  2.7262608440E-01  3.8874022356E+00  1.0338733176E-03  1.0296945795E-03  2.3684008670E-01
  5.0350000000E+03  2.7286160745E-01  3.8847724901E+00  1.0366189952E-03  1.0324212667E-03  2.3709213472E-01
  5.0400000000E+03  2.7309709989E-01  3.8821471310E+00  1.0393692165E-03  1.0351524298E-03  2.3734409857E-01
  5.0450000000E+03  2.7333256176E-01  3.8795261468E+00  1.0421239845E-03  1.0378880717E-03  2.3759597832E-01
  5.0500000000E+03  2.7356799310E-01  3.8769095258E+00  1.0448833021E-03  1.0406281951E-03  2.3784777401E-01
  5.0550000000E+03  2.7380339394E-01  3.8742972564E+00  1.0476471724E-03  1.0433728027E-03  2.3809948570E-01
  5.0600000000E+03  2.7403876431E-01  3.8716893272E+00  1.0504155982E-03  1.0461218975E-03  2.3835111342E-01
  5.0650000000E+03  2.7427410425E-01  3.8690857266E+00  1.0531885826E-03  1.0488754822E-03  2.3860265724E-01
  5.0700000000E+03  2.7450941379E-01  3.8664864432E+00  1.0559661285E-03  1.0516335595E-03  2.3885411721E-01
  5.0750000000E+03  2.7474469297E-01  3.8638914655E+00  1.0587482389E-03  1.0543961323E-03  2.3910549337E-01
  5.0800000000E+03  2.7497994181E-01  3.8613007822E+00  1.0615349167E-03  1.0571632034E-03  2.3935678578E-01
  5.0850000000E+03  2.7521670114E-01  3.8587399501E+00  1.0643261650E-03  1.0599348002E-03  2.3960799450E-01
  5.0900000000E+03  2.7545358133E-01  3.8561858160E+00  1.0671219866E-03  1.0627109035E-03  2.3985911957E-01
  5.0950000000E+03  2.7569043253E-01  3.8536358778E+00  1.0699223846E-03  1.0654915136E-03  2.4011016104E-01
  5.1000000000E+03  2.7592725477E-01  3.8510901245E+00  1.0727273618E-03  1.0682766333E-03  2.4036111898E-01
  5.1050000000E+03  2.7616404807E-01  3.8485485450E+00  1.0755369213E-03  1.0710662654E-03  2.4061199344E-01
  5.1100000000E+03  2.7640081248E-01  3.8460111286E+00  1.0783510661E-03  1.0738604126E-03  2.4086278447E-01
  5.1150000000E+03  2.7663754803E-01  3.8434778642E+00  1.0811697990E-03  1.0766590778E-03  2.4111349213E-01
  5.1200000000E+03  2.7687425473E-01  3.8409487410E+00  1.0839931230E-03  1.0794622636E-03  2.4136411647E-01
  5.1250000000E+03  2.7711093264E-01  3.8384237484E+00  1.0868210411E-03  1.0822699730E-03  2.4161465755E-01
  5.1300000000E+03  2.7734758177E-01  3.8359028754E+00  1.0896535562E-03  1.0850822086E-03  2.4186511542E-01
  5.1350000000E+03  2.7758420217E-01  3.8333861113E+00  1.0924906714E-03  1.0878989732E-03  2.4211549015E-01
  5.1400000000E+03  2.7782079385E-01  3.8308734455E+00  1.0953323894E-03  1.0907202696E-03  2.4236578179E-01
  5.1450000000E+03  2.7805735686E-01  3.8283648673E+00  1.0981787134E-03  1.0935461006E-03  2.4261599040E-01
  5.1500000000E+03  2.7829389122E-01  3.8258603661E+00  1.1010296462E-03  1.0963764689E-03  2.4286611604E-01
  5.1550000000E+03  2.7853039697E-01  3.8233599314E+00  1.1038851908E-03  1.0992113773E-03  2.4311615876E-01
  5.1600000000E+03  2.7876687414E-01  3.8208635525E+00  1.1067453502E-03  1.1020508285E-03  2.4336611862E-01
  5.1650000000E+03  2.7900425002E-01  3.8183862900E+00  1.1096101272E-03  1.1048948412E-03  2.4361599569E-01
  5.1700000000E+03  2.7924234651E-01  3.8159251744E+00  1.1124795248E-03  1.1077434152E-03  2.4386579003E-01
  5.1750000000E+03  2.7948041574E-01  3.8134680219E+00  1.1153535461E-03  1.1105965406E-03  2.4411550169E-01
  5.1800000000E+03  2.7971845773E-01  3.8110148222E+00  1.1182321938E-03  1.1134542201E-03  2.4436513073E-01
  5.1850000000E+03  2.7995647251E-01  3.8085655652E+00  1.1211154711E-03  1.1163164565E-03  2.4461467722E-01
  5.1900000000E+03  2.8019446012E-01  3.8061202407E+00  1.1240033807E-03  1.1191832526E-03  2.4486414122E-01
  5.1950000000E+03  2.8043242059E-01  3.8036788387E+00  1.1268959257E-03  1.1220546110E-03  2.4511352279E-01
  5.2000000000E+03  2.8067035393E-01  3.8012413490E+00  1.1297931089E-03  1.1249305347E-03  2.4536282199E-01
  5.2050000000E+03  2.8090826019E-01  3.7988077617E+00  1.1326949334E-03  1.1278110262E-03  2.4561203889E-01
  5.2100000000E+03  2.8114613939E-01  3.7963780668E+00  1.1356014021E-03  1.1306960885E-03  2.4586117354E-01
  5.2150000000E+03  2.8138399156E-01  3.7939522544E+00  1.1385125178E-03  1.1335857241E-03  2.4611022602E-01
  5.2200000000E+03  2.8162181672E-01  3.7915303144E+00  1.1414282836E-03  1.1364799360E-03  2.4635919638E-01
  5.2250000000E+03  2.8185961492E-01  3.7891122371E+00  1.1443487024E-03  1.1393787267E-03  2.4660808470E-01
  5.2300000000E+03  2.8209738617E-01  3.7866980125E+00  1.1472737771E-03  1.1422820991E-03  2.4685689102E-01
  5.2350000000E+03  2.8233513051E-01  3.7842876309E+00  1.1502035106E-03  1.1451900560E-03  2.4710561543E-01
  5.2400000000E+03  2.8257284796E-01  3.7818810825E+00  1.1531379058E-03  1.1481026000E-03  2.4735425798E-01
  5.2450000000E+03  2.8281053855E-01  3.7794783576E+00  1.1560769658E-03  1.1510197339E-03  2.4760281872E-01
  5.2500000000E+03  2.8304975062E-01  3.7771040673E+00  1.1590206934E-03  1.1539414885E-03  2.4785129766E-01
  5.2550000000E+03  2.8328904960E-01  3.7747353141E+00  1.1619690916E-03  1.1568678407E-03  2.4809969484E-01
  5.2600000000E+03  2.8352832301E-01  3.7723702970E+00  1.1649221633E-03  1.1597987913E-03  2.4834801030E-01
  5.2650000000E+03  2.8376757090E-01  3.7700090066E+00  1.1678799113E-03  1.1627343430E-03  2.4859624406E-01
  5.2700000000E+03  2.8400679329E-01  3.7676514335E+00  1.1708423387E-03  1.1656744986E-03  2.4884439616E-01
  5.2750000000E+03  2.8424599020E-01  3.7652975684E+00  1.1738094484E-03  1.1686192607E-03  2.4909246663E-01
  5.2800000000E+03  2.8448516166E-01  3.7629474018E+00  1.1767812433E-03  1.1715686322E-03  2.4934045552E-01
  5.2850000000E+03  2.8472430770E-01  3.7606009246E+00  1.1797577263E-03  1.1745226157E-03  2.4958836285E-01
  5.2900000000E+03  2.8496342834E-01  3.7582581274E+00  1.1827389003E-03  1.1774812139E-03  2.4983618866E-01
  5.2950000000E+03  2.8520252362E-01  3.7559190009E+00  1.1857247683E-03  1.1804444297E-03  2.5008393299E-01
  5.3000000000E+03  2.8544159355E-01  3.7535835360E+00  1.1887153331E-03  1.1834122658E-03  2.5033159588E-01
  5.3050000000E+03  2.8568063817E-01  3.7512517235E+00  1.1917105978E-03  1.1863847248E-03  2.5057917736E-01
  5.3100000000E+03  2.8591965750E-01  3.7489235543E+00  1.1947105651E-03  1.1893618095E-03  2.5082667746E-01
  5.3150000000E+03  2.8615865156E-01  3.7465990192E+00  1.1977152381E-03  1.1923435227E-03  2.5107409623E-01
  5.3200000000E+03  2.8639762040E-01  3.7442781091E+00  1.2007246197E-03  1.1953298670E-03  2.5132143371E-01
  5.3250000000E+03  2.8663656402E-01  3.7419608150E+00  1.2037387127E-03  1.1983208451E-03  2.5156868994E-01
  5.3300000000E+03  2.8687555398E-01  3.7396482428E+00  1.2067575201E-03  1.2013164613E-03  2.5181586494E-01
  5.3350000000E+03  2.8711609355E-01  3.7373637777E+00  1.2097810447E-03  1.2043167470E-03  2.5206295877E-01
  5.3400000000E+03  2.8735660920E-01  3.7350828462E+00  1.2128092896E-03  1.2073216750E-03  2.5230997146E-01
  5.3450000000E+03  2.8759710095E-01  3.7328054395E+00  1.2158422576E-03  1.2103312481E-03  2.5255690305E-01
  5.3500000000E+03  2.8783756883E-01  3.7305315488E+00  1.2188799516E-03  1.2133454688E-03  2.5280375358E-01
  5.3550000000E+03  2.8807801285E-01  3.7282611656E+00  1.2219223745E-03  1.2163643400E-03  2.5305052310E-01
  5.3600000000E+03  2.8831843304E-01  3.7259942810E+00  1.2249695293E-03  1.2193878644E-03  2.5329721165E-01
  5.3650000000E+03  2.8855882944E-01  3.7237308865E+00  1.2280214188E-03  1.2224160446E-03  2.5354381926E-01
  5.3700000000E+03  2.8879920206E-01  3.7214709734E+00  1.2310780460E-03  1.2254488834E-03  2.5379034598E-01
  5.3750000000E+03  2.8903955092E-01  3.7192145331E+00  1.2341394137E-03  1.2284863835E-03  2.5403679185E-01
  5.3800000000E+03  2.8927987605E-01  3.7169615571E+00  1.2372055249E-03  1.2315285476E-03  2.5428315691E-01
  5.3850000000E+03  2.8952017748E-01  3.7147120369E+00  1.2402763825E-03  1.2345753784E-03  2.5452944121E-01
  5.3900000000E+03  2.8976045524E-01  3.7124659639E+00  1.2433519894E-03  1.2376268787E-03  2.5477564479E-01
  5.3950000000E+03  2.9000070933E-01  3.7102233297E+00  1.2464323484E-03  1.2406830511E-03  2.5502176770E-01
  5.4000000000E+03  2.9024093979E-01  3.7079841258E+00  1.2495174625E-03  1.2437438984E-03  2.5526780997E-01
  5.4050000000E+03  2.9048114665E-01  3.7057483439E+00  1.2526073345E-03  1.2468094232E-03  2.5551377166E-01
  5.4100000000E+03  2.9072132993E-01  3.7035159754E+00  1.2557019675E-03  1.2498796282E-03  2.5575965280E-01
  5.4150000000E+03  2.9096148964E-01  3.7012870121E+00  1.2588013642E-03  1.2529545162E-03  2.5600545345E-01
  5.4200000000E+03  2.9120306630E-01  3.6990834034E+00  1.2619055276E-03  1.2560341192E-03  2.5625117364E-01
  5.4250000000E+03  2.9144481184E-01  3.6968860492E+00  1.2650144605E-03  1.2591184147E-03  2.5649681343E-01
  5.4300000000E+03  2.9168653509E-01  3.6946920227E+00  1.2681281659E-03  1.2622074014E-03  2.5674237286E-01
  5.4350000000E+03  2.9192823606E-01  3.6925013159E+00  1.2712466467E-03  1.2653010822E-03  2.5698785198E-01
  5.4400000000E+03  2.9216991479E-01  3.6903139207E+00  1.2743699057E-03  1.2683994597E-03  2.5723325083E-01
  5.4450000000E+03  2.9241157129E-01  3.6881298291E+00  1.2774979458E-03  1.2715025366E-03  2.5747856946E-01
  5.4500000000E+03  2.9265320558E-01  3.6859490330E+00  1.2806307700E-03  1.2746103155E-03  2.5772380793E-01
  5.4550000000E+03  2.9289481770E-01  3.6837715244E+00  1.2837683810E-03  1.2777227993E-03  2.5796896626E-01
  5.4600000000E+03  2.9313640766E-01  3.6815972954E+00  1.2869107819E-03  1.2808399905E-03  2.5821404453E-01
  5.4650000000E+03  2.9337797547E-01  3.6794263381E+00  1.2900579755E-03  1.2839618919E-03  2.5845904277E-01
  5.4700000000E+03  2.9361952118E-01  3.6772586445E+00  1.2932099647E-03  1.2870885061E-03  2.5870396103E-01
  5.4750000000E+03  2.9386104479E-01  3.6750942068E+00  1.2963667523E-03  1.2902198359E-03  2.5894879936E-01
  5.4800000000E+03  2.9410254634E-01  3.6729330171E+00  1.2995327953E-03  1.2933602957E-03  2.5919355782E-01
  5.4850000000E+03  2.9434402583E-01  3.6707750675E+00  1.3027072510E-03  1.2965090505E-03  2.5943823644E-01
  5.4900000000E+03  2.9458548330E-01  3.6686203503E+00  1.3058865433E-03  1.2996625578E-03  2.5968283529E-01
  5.4950000000E+03  2.9482691877E-01  3.6664688577E+00  1.3090706751E-03  1.3028208204E-03  2.5992735441E-01
  5.5000000000E+03  2.9506833225E-01  3.6643205820E+00  1.3122596494E-03  1.3059838410E-03  2.6017179386E-01
  5.5050000000E+03  2.9531044482E-01  3.6621862835E+00  1.3154534690E-03  1.3091516378E-03  2.6041615368E-01
  5.5100000000E+03  2.9555343252E-01  3.6600685346E+00  1.3186521369E-03  1.3123242175E-03  2.6066043392E-01
  5.5150000000E+03  2.9579639949E-01  3.6579539296E+00  1.3218556560E-03  1.3155015636E-03  2.6090463465E-01
  5.5200000000E+03  2.9603934575E-01  3.6558424609E+00  1.3250640292E-03  1.3186836787E-03  2.6114875590E-01
  5.5250000000E+03  2.9628227132E-01  3.6537341210E+00  1.3282772594E-03  1.3218705657E-03  2.6139279774E-01
  5.5300000000E+03  2.9652517621E-01  3.6516289025E+00  1.3314953496E-03  1.3250622272E-03  2.6163676021E-01
  5.5350000000E+03  2.9676806046E-01  3.6495267980E+00  1.3347183026E-03  1.3282586659E-03  2.6188064337E-01
  5.5400000000E+03  2.9701092407E-01  3.6474278000E+00  1.3379461214E-03  1.3314598846E-03  2.6212444727E-01
  5.5450000000E+03  2.9725376707E-01  3.6453319011E+00  1.3411788088E-03  1.3346658859E-03  2.6236817197E-01
  5.5500000000E+03  2.9749658948E-01  3.6432390940E+00  1.3444163678E-03  1.3378766725E-03  2.6261181752E-01
  5.5550000000E+03  2.9773939132E-01  3.6411493713E+00  1.3476588014E-03  1.3410922472E-03  2.6285538397E-01
  5.5600000000E+03  2.9798217261E-01  3.6390627257E+00  1.3509061123E-03  1.3443126127E-03  2.6309887138E-01
  5.5650000000E+03  2.9822493337E-01  3.6369791500E+00  1.3541583035E-03  1.3475377716E-03  2.6334227981E-01
  5.5700000000E+03  2.9846767362E-01  3.6348986368E+00  1.3574153780E-03  1.3507677267E-03  2.6358560930E-01
  5.5750000000E+03  2.9871039338E-01  3.6328211790E+00  1.3606773386E-03  1.3540024807E-03  2.6382885992E-01
  5.5800000000E+03  2.9895309267E-01  3.6307467692E+00  1.3639441883E-03  1.3572420363E-03  2.6407203172E-01
  5.5850000000E+03  2.9919577152E-01  3.6286754003E+00  1.3672159298E-03  1.3604863961E-03  2.6431512475E-01
  5.5900000000E+03  2.9943842993E-01  3.6266070652E+00  1.3704925662E-03  1.3637355628E-03  2.6455813908E-01
  5.5950000000E+03  2.9968223551E-01  3.6245588234E+00  1.3737741004E-03  1.3669895660E-03  2.6480107476E-01
  5.6000000000E+03  2.9992645754E-01  3.6225199309E+00  1.3770605352E-03  1.3702483917E-03  2.6504393184E-01
  5.6050000000E+03  3.0017066037E-01  3.6204840034E+00  1.3803518736E-03  1.3735120328E-03  2.6528671038E-01
  5.6100000000E+03  3.0041484402E-01  3.6184510339E+00  1.3836481184E-03  1.3767804918E-03  2.6552941039E-01
  5.6150000000E+03  3.0065900851E-01  3.6164210156E+00  1.3869492725E-03  1.3800537716E-03  2.6577203190E-01
  5.6200000000E+03  3.0090315385E-01  3.6143939415E+00  1.3902553389E-03  1.3833318747E-03  2.6601457494E-01
  5.6250000000E+03  3.0114728008E-01  3.6123698047E+00  1.3935663205E-03  1.3866148039E-03  2.6625703954E-01
  5.6300000000E+03  3.0139138719E-01  3.6103485984E+00  1.3968822200E-03  1.3899025619E-03  2.6649942572E-01
  5.6350000000E+03  3.0163547522E-01  3.6083303158E+00  1.4002030405E-03  1.3931951514E-03  2.6674173353E-01
  5.6400000000E+03  3.0187954418E-01  3.6063149500E+00  1.4035287849E-03  1.3964925750E-03  2.6698396298E-01
  5.6450000000E+03  3.0212359408E-01  3.6043024942E+00  1.4068594559E-03  1.3997948354E-03  2.6722611412E-01
  5.6500000000E+03  3.0236762496E-01  3.6022929417E+00  1.4101950566E-03  1.4031019354E-03  2.6746818697E-01
  5.6550000000E+03  3.0261163682E-01  3.6002862857E+00  1.4135355898E-03  1.4064138775E-03  2.6771018156E-01
  5.6600000000E+03  3.0285562968E-01  3.5982825194E+00  1.4168810584E-03  1.4097306646E-03  2.6795209793E-01
  5.6650000000E+03  3.0309960357E-01  3.5962816362E+00  1.4202314653E-03  1.4130522992E-03  2.6819393611E-01
  5.6700000000E+03  3.0334355849E-01  3.5942836294E+00  1.4235868133E-03  1.4163787840E-03  2.6843569613E-01
  5.6750000000E+03  3.0358749448E-01  3.5922884923E+00  1.4269471054E-03  1.4197101217E-03  2.6867737803E-01
  5.6800000000E+03  3.0383141154E-01  3.5902962183E+00  1.4303123445E-03  1.4230463151E-03  2.6891898183E-01
  5.6850000000E+03  3.0407646260E-01  3.5883233032E+00  1.4336825334E-03  1.4263873947E-03  2.6916050758E-01
  5.6900000000E+03  3.0432193243E-01  3.5863594494E+00  1.4370576750E-03  1.4297333460E-03  2.6940195530E-01
  5.6950000000E+03  3.0456738455E-01  3.5843983940E+00  1.4404377722E-03  1.4330841612E-03  2.6964332503E-01
  5.7000000000E+03  3.0481281898E-01  3.5824401305E+00  1.4438228280E-03  1.4364398431E-03  2.6988461681E-01
  5.7050000000E+03  3.0505823574E-01  3.5804846524E+00  1.4472128451E-03  1.4398003941E-03  2.7012583066E-01
  5.7100000000E+03  3.0530363483E-01  3.5785319534E+00  1.4506078264E-03  1.4431658170E-03  2.7036696663E-01
  5.7150000000E+03  3.0554901628E-01  3.5765820271E+00  1.4540077749E-03  1.4465361146E-03  2.7060802475E-01
  5.7200000000E+03  3.0579438010E-01  3.5746348672E+00  1.4574126934E-03  1.4499112893E-03  2.7084900506E-01
  5.7250000000E+03  3.0603972632E-01  3.5726904672E+00  1.4608225848E-03  1.4532913440E-03  2.7108990758E-01
  5.7300000000E+03  3.0628505494E-01  3.5707488210E+00  1.4642374520E-03  1.4566762812E-03  2.7133073237E-01
  5.7350000000E+03  3.0653036598E-01  3.5688099221E+00  1.4676572979E-03  1.4600661037E-03  2.7157147944E-01
  5.7400000000E+03  3.0677565947E-01  3.5668737643E+00  1.4710821252E-03  1.4634608141E-03  2.7181214885E-01
  5.7450000000E+03  3.0702093541E-01  3.5649403414E+00  1.4745119370E-03  1.4668604150E-03  2.7205274063E-01
  5.7500000000E+03  3.0726619382E-01  3.5630096471E+00  1.4779467361E-03  1.4702649092E-03  2.7229325482E-01
  5.7550000000E+03  3.0751143472E-01  3.5610816752E+00  1.4813865253E-03  1.4736742993E-03  2.7253369144E-01
  5.7600000000E+03  3.0775665813E-01  3.5591564195E+00  1.4848313075E-03  1.4770885878E-03  2.7277405055E-01
  5.7650000000E+03  3.0800186406E-01  3.5572338738E+00  1.4882810857E-03  1.4805077776E-03  2.7301433218E-01
  5.7700000000E+03  3.0824705253E-01  3.5553140319E+00  1.4917358626E-03  1.4839318713E-03  2.7325453637E-01
  5.7750000000E+03  3.0849290518E-01  3.5534064462E+00  1.4951956411E-03  1.4873608889E-03  2.7349466315E-01
  5.7800000000E+03  3.0873963534E-01  3.5515140595E+00  1.4986604242E-03  1.4907948390E-03  2.7373471257E-01
  5.7850000000E+03  3.0898634924E-01  3.5496243157E+00  1.5021302146E-03  1.4942337011E-03  2.7397468466E-01
  5.7900000000E+03  3.0923304689E-01  3.5477372087E+00  1.5056050153E-03  1.4976774779E-03  2.7421457947E-01
  5.7950000000E+03  3.0947972830E-01  3.5458527325E+00  1.5090848291E-03  1.5011261722E-03  2.7445439704E-01
  5.8000000000E+03  3.0972639349E-01  3.5439708813E+00  1.5125696589E-03  1.5045797865E-03  2.7469413740E-01
  5.8050000000E+03  3.0997304248E-01  3.5420916492E+00  1.5160595075E-03  1.5080383235E-03  2.7493380059E-01
  5.8100000000E+03  3.1021967527E-01  3.5402150301E+00  1.5195543779E-03  1.5115017859E-03  2.7517338666E-01
  5.8150000000E+03  3.1046629189E-01  3.5383410183E+00  1.5230542728E-03  1.5149701763E-03  2.7541289565E-01
  5.8200000000E+03  3.1071289235E-01  3.5364696080E+00  1.5265591951E-03  1.5184434973E-03  2.7565232760E-01
  5.8250000000E+03  3.1095947667E-01  3.5346007931E+00  1.5300691478E-03  1.5219217516E-03  2.7589168254E-01
  5.8300000000E+03  3.1120604486E-01  3.5327345680E+00  1.5335841336E-03  1.5254049418E-03  2.7613096053E-01
  5.8350000000E+03  3.1145259693E-01  3.5308709269E+00  1.5371041554E-03  1.5288930705E-03  2.7637016160E-01
  5.8400000000E+03  3.1169913290E-01  3.5290098639E+00  1.5406292161E-03  1.5323861405E-03  2.7660928580E-01
  5.8450000000E+03  3.1194565279E-01  3.5271513732E+00  1.5441593185E-03  1.5358841544E-03  2.7684833317E-01
  5.8500000000E+03  3.1219215660E-01  3.5252954492E+00  1.5476944656E-03  1.5393871147E-03  2.7708730374E-01
  5.8550000000E+03  3.1243864436E-01  3.5234420860E+00  1.5512346600E-03  1.5428950241E-03  2.7732619757E-01
  5.8600000000E+03  3.1268511608E-01  3.5215912780E+00  1.5547799048E-03  1.5464078853E-03  2.7756501470E-01
  5.8650000000E+03  3.1293157177E-01  3.5197430195E+00  1.5583302028E-03  1.5499257009E-03  2.7780375517E-01
  5.8700000000E+03  3.1317933234E-01  3.5179154351E+00  1.5618855567E-03  1.5534485095E-03  2.7804241903E-01
  5.8750000000E+03  3.1342731957E-01  3.5160936678E+00  1.5654459695E-03  1.5569762847E-03  2.7828100631E-01
  5.8800000000E+03  3.1367529196E-01  3.5142743924E+00  1.5690114441E-03  1.5605090224E-03  2.7851951707E-01
  5.8850000000E+03  3.1392324951E-01  3.5124576035E+00  1.5725819832E-03  1.5640467254E-03  2.7875795134E-01
  5.8900000000E+03  3.1417119225E-01  3.5106432956E+00  1.5761575897E-03  1.5675893962E-03  2.7899630918E-01
  5.8950000000E+03  3.1441912017E-01  3.5088314631E+00  1.5797382665E-03  1.5711370375E-03  2.7923459062E-01
  5.9000000000E+03  3.1466703330E-01  3.5070221006E+00  1.5833240164E-03  1.5746896518E-03  2.7947279572E-01
  5.9050000000E+03  3.1491493165E-01  3.5052152027E+00  1.5869148423E-03  1.5782472419E-03  2.7971092451E-01
  5.9100000000E+03  3.1516281524E-01  3.5034107639E+00  1.5905107470E-03  1.5818098103E-03  2.7994897705E-01
  5.9150000000E+03  3.1541068406E-01  3.5016087787E+00  1.5941117333E-03  1.5853773598E-03  2.8018695338E-01
  5.9200000000E+03  3.1565853815E-01  3.4998092418E+00  1.5977178042E-03  1.5889498928E-03  2.8042485355E-01
  5.9250000000E+03  3.1590637751E-01  3.4980121478E+00  1.6013289624E-03  1.5925274120E-03  2.8066267760E-01
  5.9300000000E+03  3.1615420216E-01  3.4962174913E+00  1.6049452108E-03  1.5961099201E-03  2.8090042558E-01
  5.9350000000E+03  3.1640201211E-01  3.4944252670E+00  1.6085665522E-03  1.5996974196E-03  2.8113809753E-01
  5.9400000000E+03  3.1664980736E-01  3.4926354694E+00  1.6121929895E-03  1.6032899132E-03  2.8137569351E-01
  5.9450000000E+03  3.1689758795E-01  3.4908480934E+00  1.6158245255E-03  1.6068874034E-03  2.8161321355E-01
  5.9500000000E+03  3.1714535387E-01  3.4890631335E+00  1.6194611631E-03  1.6104898930E-03  2.8185065767E-01
  5.9550000000E+03  3.1739310515E-01  3.4872805845E+00  1.6231029051E-03  1.6140973845E-03  2.8208802588E-01
  5.9600000000E+03  3.1764084179E-01  3.4855004411E+00  1.6267497543E-03  1.6177098806E-03  2.8232531823E-01
  5.9650000000E+03  3.1789004981E-01  3.4837426652E+00  1.6304017136E-03  1.6213274267E-03  2.8256253472E-01
  5.9700000000E+03  3.1813930799E-01  3.4819881021E+00  1.6340587859E-03  1.6249499848E-03  2.8279967538E-01
  5.9750000000E+03  3.1838855269E-01  3.4802358903E+00  1.6377209738E-03  1.6285775555E-03  2.8303674024E-01
  5.9800000000E+03  3.1863778393E-01  3.4784860249E+00  1.6413882803E-03  1.6322101415E-03  2.8327372933E-01
  5.9850000000E+03  3.1888700172E-01  3.4767385007E+00  1.6450607083E-03  1.6358477454E-03  2.8351064266E-01
  5.9900000000E+03  3.1913620608E-01  3.4749933126E+00  1.6487382605E-03  1.6394903698E-03  2.8374748027E-01
  5.9950000000E+03  3.1938539701E-01  3.4732504556E+00  1.6524209398E-03  1.6431380173E-03  2.8398424219E-01
  6.0000000000E+03  3.1963457452E-01  3.4715099246E+00  1.6561087490E-03  1.6467906905E-03  2.8422092843E-01
  6.0050000000E+03  3.1988373864E-01  3.4697717146E+00  1.6598115415E-03  1.6504581319E-03  2.8445753902E-01
  6.0100000000E+03  3.2013288936E-01  3.4680358205E+00  1.6635195033E-03  1.6541306372E-03  2.8469407400E-01
  6.0150000000E+03  3.2038202671E-01  3.4663022373E+00  1.6672326371E-03  1.6578082089E-03  2.8493053338E-01
  6.0200000000E+03  3.2063115069E-01  3.4645709601E+00  1.6709509459E-03  1.6614908497E-03  2.8516691721E-01
  6.0250000000E+03  3.2088026132E-01  3.4628419839E+00  1.6746744325E-03  1.6651785623E-03  2.8540322549E-01
  6.0300000000E+03  3.2112935860E-01  3.4611153037E+00  1.6784030998E-03  1.6688713492E-03  2.8563945827E-01
  6.0350000000E+03  3.2137844256E-01  3.4593909145E+00  1.6821369507E-03  1.6725692132E-03  2.8587561556E-01
  6.0400000000E+03  3.2162751319E-01  3.4576688115E+00  1.6858759879E-03  1.6762721568E-03  2.8611169741E-01
  6.0450000000E+03  3.2187657052E-01  3.4559489896E+00  1.6896202145E-03  1.6799801827E-03  2.8634770383E-01
  6.0500000000E+03  3.2212561455E-01  3.4542314441E+00  1.6933696332E-03  1.6836932935E-03  2.8658363485E-01
  6.0550000000E+03  3.2237464530E-01  3.4525161699E+00  1.6971242470E-03  1.6874114919E-03  2.8681949051E-01
  6.0600000000E+03  3.2262484855E-01  3.4508186827E+00  1.7008840586E-03  1.6911348168E-03  2.8705527084E-01
  6.0650000000E+03  3.2287539685E-01  3.4491281020E+00  1.7046490710E-03  1.6948632457E-03  2.8729097586E-01
  6.0700000000E+03  3.2312593302E-01  3.4474397416E+00  1.7084192869E-03  1.6985967703E-03  2.8752660560E-01
  6.0750000000E+03  3.2337645707E-01  3.4457535968E+00  1.7121947094E-03  1.7023353934E-03  2.8776216009E-01
  6.0800000000E+03  3.2362696900E-01  3.4440696629E+00  1.7159753411E-03  1.7060791175E-03  2.8799763937E-01
  6.0850000000E+03  3.2387746884E-01  3.4423879352E+00  1.7197611851E-03  1.7098279452E-03  2.8823304346E-01
  6.0900000000E+03  3.2412795658E-01  3.4407084089E+00  1.7235522441E-03  1.7135818791E-03  2.8846837240E-01
  6.0950000000E+03  3.2437843224E-01  3.4390310794E+00  1.7273485211E-03  1.7173409220E-03  2.8870362621E-01
  6.1000000000E+03  3.2462889583E-01  3.4373559421E+00  1.7311500187E-03  1.7211050763E-03  2.8893880493E-01
  6.1050000000E+03  3.2487934736E-01  3.4356829921E+00  1.7349567400E-03  1.7248743448E-03  2.8917390859E-01
  6.1100000000E+03  3.2512978684E-01  3.4340122250E+00  1.7387686878E-03  1.7286487301E-03  2.8940893721E-01
  6.1150000000E+03  3.2538021428E-01  3.4323436361E+00  1.7425858649E-03  1.7324282347E-03  2.8964389084E-01
  6.1200000000E+03  3.2563062969E-01  3.4306772207E+00  1.7464082743E-03  1.7362128613E-03  2.8987876951E-01
  6.1250000000E+03  3.2588103308E-01  3.4290129743E+00  1.7502359186E-03  1.7400026126E-03  2.9011357324E-01
  6.1300000000E+03  3.2613142446E-01  3.4273508922E+00  1.7540688008E-03  1.7437974910E-03  2.9034830206E-01
  6.1350000000E+03  3.2638180385E-01  3.4256909699E+00  1.7579069238E-03  1.7475974993E-03  2.9058295602E-01
  6.1400000000E+03  3.2663217125E-01  3.4240332029E+00  1.7617502904E-03  1.7514026400E-03  2.9081753515E-01
  6.1450000000E+03  3.2688252667E-01  3.4223775865E+00  1.7655989034E-03  1.7552129158E-03  2.9105203947E-01
  6.1500000000E+03  3.2713287013E-01  3.4207241163E+00  1.7694527657E-03  1.7590283292E-03  2.9128646902E-01
  6.1550000000E+03  3.2738361630E-01  3.4190780538E+00  1.7733118801E-03  1.7628488964E-03  2.9152082384E-01
  6.1600000000E+03  3.2763547813E-01  3.4174484177E+00  1.7771762495E-03  1.7666746432E-03  2.9175510396E-01
  6.1650000000E+03  3.2788732913E-01  3.4158208795E+00  1.7810458768E-03  1.7705055357E-03  2.9198930941E-01
  6.1700000000E+03  3.2813916931E-01  3.4141954350E+00  1.7849207647E-03  1.7743415767E-03  2.9222344023E-01
  6.1750000000E+03  3.2839099869E-01  3.4125720797E+00  1.7888009162E-03  1.7781827688E-03  2.9245749644E-01
  6.1800000000E+03  3.2864281727E-01  3.4109508092E+00  1.7926863340E-03  1.7820291145E-03  2.9269147810E-01
  6.1850000000E+03  3.2889462506E-01  3.4093316193E+00  1.7965770211E-03  1.7858806164E-03  2.9292538523E-01
  6.1900000000E+03  3.2914642208E-01  3.4077145054E+00  1.8004729802E-03  1.7897372772E-03  2.9315921786E-01
  6.1950000000E+03  3.2939820832E-01  3.4060994634E+00  1.8043742142E-03  1.7935990995E-03  2.9339297603E-01
  6.2000000000E+03  3.2964998381E-01  3.4044864888E+00  1.8082807259E-03  1.7974660858E-03  2.9362665978E-01
  6.2050000000E+03  3.2990174854E-01  3.4028755775E+00  1.8121925182E-03  1.8013382388E-03  2.9386026915E-01
  6.2100000000E+03  3.3015350254E-01  3.4012667250E+00  1.8161095940E-03  1.8052155610E-03  2.9409380416E-01
  6.2150000000E+03  3.3040524580E-01  3.3996599270E+00  1.8200319560E-03  1.8090980551E-03  2.9432726486E-01
  6.2200000000E+03  3.3065697833E-01  3.3980551794E+00  1.8239596070E-03  1.8129857237E-03  2.9456065128E-01
  6.2250000000E+03  3.3090870015E-01  3.3964524779E+00  1.8278925500E-03  1.8168785693E-03  2.9479396346E-01
  6.2300000000E+03  3.3116041127E-01  3.3948518181E+00  1.8318307878E-03  1.8207765945E-03  2.9502720144E-01
  6.2350000000E+03  3.3141211169E-01  3.3932531959E+00  1.8357743232E-03  1.8246798019E-03  2.9526036524E-01
  6.2400000000E+03  3.3166380142E-01  3.3916566071E+00  1.8397771605E-03  1.8286415440E-03  2.9549345492E-01
  6.2450000000E+03  3.3191548048E-01  3.3900620474E+00  1.8437948939E-03  1.8326179484E-03  2.9572647050E-01
  6.2500000000E+03  3.3216714886E-01  3.3884695126E+00  1.8478181630E-03  1.8365997673E-03  2.9595941203E-01
  6.2550000000E+03  3.3241950858E-01  3.3868876399E+00  1.8518469709E-03  1.8405870276E-03  2.9619227954E-01
  6.2600000000E+03  3.3267269716E-01  3.3853180839E+00  1.8558813208E-03  1.8445797372E-03  2.9642507307E-01
  6.2650000000E+03  3.3292587620E-01  3.3837505075E+00  1.8599212159E-03  1.8485778703E-03  2.9665779267E-01
  6.2700000000E+03  3.3317904571E-01  3.3821849068E+00  1.8639666592E-03  1.8525814299E-03  2.9689043856E-01
  6.2750000000E+03  3.3343220571E-01  3.3806212775E+00  1.8680176541E-03  1.8565904188E-03  2.9712301076E-01
  6.2800000000E+03  3.3368535619E-01  3.3790596156E+00  1.8720742036E-03  1.8606048400E-03  2.9735550930E-01
  6.2850000000E+03  3.3393849717E-01  3.3774999172E+00  1.8761363109E-03  1.8646246962E-03  2.9758793419E-01
  6.2900000000E+03  3.3419162865E-01  3.3759421781E+00  1.8802039792E-03  1.8686499905E-03  2.9782028543E-01
  6.2950000000E+03  3.3444475064E-01  3.3743863944E+00  1.8842772116E-03  1.8726807257E-03  2.9805256304E-01
  6.3000000000E+03  3.3469786316E-01  3.3728325621E+00  1.8883560112E-03  1.8767169047E-03  2.9828476703E-01
  6.3050000000E+03  3.3495096620E-01  3.3712806771E+00  1.8924403814E-03  1.8807585304E-03  2.9851689741E-01
  6.3100000000E+03  3.3520405978E-01  3.3697307355E+00  1.8965303251E-03  1.8848056057E-03  2.9874895419E-01
  6.3150000000E+03  3.3545714390E-01  3.3681827334E+00  1.9006258455E-03  1.8888581335E-03  2.9898093738E-01
  6.3200000000E+03  3.3571021857E-01  3.3666366666E+00  1.9047269459E-03  1.8929161166E-03  2.9921284701E-01
  6.3250000000E+03  3.3596328381E-01  3.3650925314E+00  1.9088336293E-03  1.8969795580E-03  2.9944468307E-01
  6.3300000000E+03  3.3621633961E-01  3.3635503238E+00  1.9129458989E-03  1.9010484605E-03  2.9967644559E-01
  6.3350000000E+03  3.3646938598E-01  3.3620100398E+00  1.9170637579E-03  1.9051228271E-03  2.9990813457E-01
  6.3400000000E+03  3.3672242294E-01  3.3604716755E+00  1.9211872095E-03  1.9092026606E-03  3.0013975003E-01
  6.3450000000E+03  3.3697545049E-01  3.3589352271E+00  1.9253162566E-03  1.9132879638E-03  3.0037129198E-01
  6.3500000000E+03  3.3722846863E-01  3.3574006906E+00  1.9294509027E-03  1.9173787398E-03  3.0060276044E-01
