#[MATERIAL DEFINITION FOR MC-GPU: interaction mean free path and sampling data from PENELOPE 2006]
#[MATERIAL NAME]
# Calcium Oxalate (CaC2O4)                                      
#[NOMINAL DENSITY (g/cm^3)]
#   2.12000000
#[NUMBER OF DATA VALUES]
#  23002
#[MEAN FREE PATHS (cm) (ie, average distance between interactions)]
#[Energy (eV)     | Rayleigh        | Compton         | Photoelectric   | TOTAL (+pair prod) (cm) | Rayleigh: max cumul prob F^2]
  5.0000000000E+03  5.1781090421E-01  5.0956129053E+00  2.2003162649E-03  2.1900644157E-03  2.4722900325E-01
  5.0050000000E+03  5.1829939250E-01  5.0928565222E+00  2.2062015970E-03  2.1959032247E-03  2.4747266211E-01
  5.0100000000E+03  5.1878785316E-01  5.0901043801E+00  2.2120967267E-03  2.2017516657E-03  2.4771620179E-01
  5.0150000000E+03  5.1927628623E-01  5.0873564682E+00  2.2180016604E-03  2.2076097446E-03  2.4795962245E-01
  5.0200000000E+03  5.1976469174E-01  5.0846127760E+00  2.2239164045E-03  2.2134774673E-03  2.4820292430E-01
  5.0250000000E+03  5.2025306971E-01  5.0818732926E+00  2.2298409655E-03  2.2193548400E-03  2.4844610749E-01
  5.0300000000E+03  5.2074142018E-01  5.0791380076E+00  2.2357753496E-03  2.2252418684E-03  2.4868917222E-01
  5.0350000000E+03  5.2122974318E-01  5.0764069102E+00  2.2417195634E-03  2.2311385586E-03  2.4893211866E-01
  5.0400000000E+03  5.2171803872E-01  5.0736799899E+00  2.2476736132E-03  2.2370449165E-03  2.4917494700E-01
  5.0450000000E+03  5.2220630685E-01  5.0709572362E+00  2.2536375053E-03  2.2429609481E-03  2.4941765740E-01
  5.0500000000E+03  5.2269454759E-01  5.0682386387E+00  2.2596112463E-03  2.2488866594E-03  2.4966025006E-01
  5.0550000000E+03  5.2318276097E-01  5.0655241868E+00  2.2655948424E-03  2.2548220562E-03  2.4990272515E-01
  5.0600000000E+03  5.2367094702E-01  5.0628138701E+00  2.2715883001E-03  2.2607671446E-03  2.5014508285E-01
  5.0650000000E+03  5.2415910576E-01  5.0601076783E+00  2.2775916257E-03  2.2667219304E-03  2.5038732334E-01
  5.0700000000E+03  5.2464723723E-01  5.0574056010E+00  2.2836048256E-03  2.2726864196E-03  2.5062944680E-01
  5.0750000000E+03  5.2513534145E-01  5.0547076280E+00  2.2896279062E-03  2.2786606182E-03  2.5087145341E-01
  5.0800000000E+03  5.2562341846E-01  5.0520137489E+00  2.2956608738E-03  2.2846445321E-03  2.5111334335E-01
  5.0850000000E+03  5.2611446420E-01  5.0493451400E+00  2.3017037349E-03  2.2906382283E-03  2.5135511681E-01
  5.0900000000E+03  5.2660577710E-01  5.0466826212E+00  2.3077564958E-03  2.2966416581E-03  2.5159677395E-01
  5.0950000000E+03  5.2709706575E-01  5.0440241185E+00  2.3138191628E-03  2.3026548215E-03  2.5183831496E-01
  5.1000000000E+03  5.2758833017E-01  5.0413696218E+00  2.3198917424E-03  2.3086777244E-03  2.5207974003E-01
  5.1050000000E+03  5.2807957040E-01  5.0387191212E+00  2.3259742409E-03  2.3147103727E-03  2.5232104932E-01
  5.1100000000E+03  5.2857078644E-01  5.0360726067E+00  2.3320666646E-03  2.3207527724E-03  2.5256224302E-01
  5.1150000000E+03  5.2906197834E-01  5.0334300686E+00  2.3381690200E-03  2.3268049293E-03  2.5280332132E-01
  5.1200000000E+03  5.2955314611E-01  5.0307914968E+00  2.3442813133E-03  2.3328668494E-03  2.5304428438E-01
  5.1250000000E+03  5.3004428978E-01  5.0281568817E+00  2.3504035509E-03  2.3389385386E-03  2.5328513239E-01
  5.1300000000E+03  5.3053540937E-01  5.0255262134E+00  2.3565357393E-03  2.3450200028E-03  2.5352586554E-01
  5.1350000000E+03  5.3102650490E-01  5.0228994822E+00  2.3626778846E-03  2.3511112478E-03  2.5376648399E-01
  5.1400000000E+03  5.3151757641E-01  5.0202766784E+00  2.3688299933E-03  2.3572122796E-03  2.5400698794E-01
  5.1450000000E+03  5.3200862392E-01  5.0176577922E+00  2.3749920717E-03  2.3633231041E-03  2.5424737755E-01
  5.1500000000E+03  5.3249964745E-01  5.0150428141E+00  2.3811641262E-03  2.3694437272E-03  2.5448765302E-01
  5.1550000000E+03  5.3299064702E-01  5.0124317343E+00  2.3873461631E-03  2.3755741548E-03  2.5472781452E-01
  5.1600000000E+03  5.3348162267E-01  5.0098245434E+00  2.3935381887E-03  2.3817143926E-03  2.5496786223E-01
  5.1650000000E+03  5.3397435628E-01  5.0072337575E+00  2.3997402093E-03  2.3878644852E-03  2.5520779633E-01
  5.1700000000E+03  5.3446850592E-01  5.0046569126E+00  2.4059522314E-03  2.3940244314E-03  2.5544761700E-01
  5.1750000000E+03  5.3496263452E-01  5.0020838828E+00  2.4121742612E-03  2.4001942061E-03  2.5568732442E-01
  5.1800000000E+03  5.3545674210E-01  4.9995146587E+00  2.4184063051E-03  2.4063738152E-03  2.5592691877E-01
  5.1850000000E+03  5.3595082868E-01  4.9969492311E+00  2.4246483693E-03  2.4125632646E-03  2.5616640024E-01
  5.1900000000E+03  5.3644489430E-01  4.9943875908E+00  2.4309004603E-03  2.4187625601E-03  2.5640576899E-01
  5.1950000000E+03  5.3693893895E-01  4.9918297284E+00  2.4371625842E-03  2.4249717077E-03  2.5664502522E-01
  5.2000000000E+03  5.3743296268E-01  4.9892756348E+00  2.4434347476E-03  2.4311907131E-03  2.5688416910E-01
  5.2050000000E+03  5.3792696549E-01  4.9867253008E+00  2.4497169566E-03  2.4374195823E-03  2.5712320082E-01
  5.2100000000E+03  5.3842094742E-01  4.9841787173E+00  2.4560092176E-03  2.4436583211E-03  2.5736212054E-01
  5.2150000000E+03  5.3891490847E-01  4.9816358751E+00  2.4623115369E-03  2.4499069353E-03  2.5760092846E-01
  5.2200000000E+03  5.3940884868E-01  4.9790967652E+00  2.4686239208E-03  2.4561654309E-03  2.5783962476E-01
  5.2250000000E+03  5.3990276806E-01  4.9765613786E+00  2.4749463756E-03  2.4624338136E-03  2.5807820960E-01
  5.2300000000E+03  5.4039666663E-01  4.9740297062E+00  2.4812789076E-03  2.4687120894E-03  2.5831668318E-01
  5.2350000000E+03  5.4089054442E-01  4.9715017391E+00  2.4876215232E-03  2.4750002639E-03  2.5855504567E-01
  5.2400000000E+03  5.4138440144E-01  4.9689774682E+00  2.4939742285E-03  2.4812983432E-03  2.5879329726E-01
  5.2450000000E+03  5.4187823771E-01  4.9664568847E+00  2.5003370301E-03  2.4876063330E-03  2.5903143812E-01
  5.2500000000E+03  5.4237499277E-01  4.9639605054E+00  2.5067099340E-03  2.4939243066E-03  2.5926946844E-01
  5.2550000000E+03  5.4287194342E-01  4.9614692457E+00  2.5130929466E-03  2.5002522077E-03  2.5950738839E-01
  5.2600000000E+03  5.4336887614E-01  4.9589816038E+00  2.5194860743E-03  2.5065900374E-03  2.5974519815E-01
  5.2650000000E+03  5.4386579095E-01  4.9564975710E+00  2.5258893233E-03  2.5129378016E-03  2.5998289791E-01
  5.2700000000E+03  5.4436268787E-01  4.9540171386E+00  2.5323026998E-03  2.5192955060E-03  2.6022048785E-01
  5.2750000000E+03  5.4485956691E-01  4.9515402979E+00  2.5387262103E-03  2.5256631564E-03  2.6045796814E-01
  5.2800000000E+03  5.4535642809E-01  4.9490670405E+00  2.5451598609E-03  2.5320407587E-03  2.6069533897E-01
  5.2850000000E+03  5.4585327142E-01  4.9465973576E+00  2.5516036579E-03  2.5384283188E-03  2.6093260051E-01
  5.2900000000E+03  5.4635009693E-01  4.9441312409E+00  2.5580576077E-03  2.5448258423E-03  2.6116975295E-01
  5.2950000000E+03  5.4684690464E-01  4.9416686816E+00  2.5645217164E-03  2.5512333351E-03  2.6140679646E-01
  5.3000000000E+03  5.4734369456E-01  4.9392096715E+00  2.5709959905E-03  2.5576508031E-03  2.6164373124E-01
  5.3050000000E+03  5.4784046670E-01  4.9367542020E+00  2.5774804361E-03  2.5640782520E-03  2.6188055744E-01
  5.3100000000E+03  5.4833722109E-01  4.9343022646E+00  2.5839750595E-03  2.5705156877E-03  2.6211727527E-01
  5.3150000000E+03  5.4883395774E-01  4.9318538511E+00  2.5904798670E-03  2.5769631159E-03  2.6235388489E-01
  5.3200000000E+03  5.4933067667E-01  4.9294089530E+00  2.5969948648E-03  2.5834205424E-03  2.6259038649E-01
  5.3250000000E+03  5.4982737790E-01  4.9269675619E+00  2.6035200593E-03  2.5898879731E-03  2.6282678025E-01
  5.3300000000E+03  5.5032419553E-01  4.9245306017E+00  2.6100554567E-03  2.5963654169E-03  2.6306306634E-01
  5.3350000000E+03  5.5082394817E-01  4.9221176257E+00  2.6166010632E-03  2.6028529481E-03  2.6329924495E-01
  5.3400000000E+03  5.5132368585E-01  4.9197080908E+00  2.6231568851E-03  2.6093505014E-03  2.6353531626E-01
  5.3450000000E+03  5.5182340857E-01  4.9173019888E+00  2.6297229286E-03  2.6158580825E-03  2.6377128045E-01
  5.3500000000E+03  5.5232311637E-01  4.9148993117E+00  2.6362992001E-03  2.6223756973E-03  2.6400713770E-01
  5.3550000000E+03  5.5282280925E-01  4.9125000514E+00  2.6428857057E-03  2.6289033514E-03  2.6424288818E-01
  5.3600000000E+03  5.5332248722E-01  4.9101041998E+00  2.6494824517E-03  2.6354410507E-03  2.6447853208E-01
  5.3650000000E+03  5.5382215030E-01  4.9077117489E+00  2.6560894444E-03  2.6419888009E-03  2.6471406958E-01
  5.3700000000E+03  5.5432179851E-01  4.9053226908E+00  2.6627066900E-03  2.6485466079E-03  2.6494950086E-01
  5.3750000000E+03  5.5482143186E-01  4.9029370175E+00  2.6693341948E-03  2.6551144773E-03  2.6518482610E-01
  5.3800000000E+03  5.5532105036E-01  4.9005547210E+00  2.6759719649E-03  2.6616924150E-03  2.6542004547E-01
  5.3850000000E+03  5.5582065402E-01  4.8981757934E+00  2.6826200067E-03  2.6682804267E-03  2.6565515917E-01
  5.3900000000E+03  5.5632024287E-01  4.8958002269E+00  2.6892783263E-03  2.6748785181E-03  2.6589016736E-01
  5.3950000000E+03  5.5681981692E-01  4.8934280135E+00  2.6959469300E-03  2.6814866951E-03  2.6612507023E-01
  5.4000000000E+03  5.5731937617E-01  4.8910591455E+00  2.7026258241E-03  2.6881049634E-03  2.6635986796E-01
  5.4050000000E+03  5.5781892065E-01  4.8886936151E+00  2.7093150147E-03  2.6947333286E-03  2.6659456073E-01
  5.4100000000E+03  5.5831845037E-01  4.8863314144E+00  2.7160145081E-03  2.7013717967E-03  2.6682914872E-01
  5.4150000000E+03  5.5881796533E-01  4.8839725357E+00  2.7227243105E-03  2.7080203732E-03  2.6706363210E-01
  5.4200000000E+03  5.5932013181E-01  4.8816353849E+00  2.7294444282E-03  2.7146791325E-03  2.6729801106E-01
  5.4250000000E+03  5.5982264007E-01  4.8793039487E+00  2.7361748673E-03  2.7213480215E-03  2.6753228579E-01
  5.4300000000E+03  5.6032513624E-01  4.8769757723E+00  2.7429156341E-03  2.7280270367E-03  2.6776645645E-01
  5.4350000000E+03  5.6082762033E-01  4.8746508480E+00  2.7496667348E-03  2.7347161840E-03  2.6800052323E-01
  5.4400000000E+03  5.6133009237E-01  4.8723291684E+00  2.7564281756E-03  2.7414154690E-03  2.6823448630E-01
  5.4450000000E+03  5.6183255235E-01  4.8700107260E+00  2.7631999627E-03  2.7481248976E-03  2.6846834586E-01
  5.4500000000E+03  5.6233500029E-01  4.8676955132E+00  2.7699821023E-03  2.7548444754E-03  2.6870210207E-01
  5.4550000000E+03  5.6283743621E-01  4.8653835227E+00  2.7767746007E-03  2.7615742081E-03  2.6893575512E-01
  5.4600000000E+03  5.6333986011E-01  4.8630747469E+00  2.7835774641E-03  2.7683141014E-03  2.6916930518E-01
  5.4650000000E+03  5.6384227200E-01  4.8607691785E+00  2.7903906986E-03  2.7750641612E-03  2.6940275245E-01
  5.4700000000E+03  5.6434467190E-01  4.8584668101E+00  2.7972143105E-03  2.7818243931E-03  2.6963609709E-01
  5.4750000000E+03  5.6484705982E-01  4.8561676344E+00  2.8040483059E-03  2.7885948027E-03  2.6986933929E-01
  5.4800000000E+03  5.6534943576E-01  4.8538716439E+00  2.8108963807E-03  2.7953790449E-03  2.7010247922E-01
  5.4850000000E+03  5.6585179975E-01  4.8515788315E+00  2.8177578387E-03  2.8021764304E-03  2.7033551707E-01
  5.4900000000E+03  5.6635415178E-01  4.8492891897E+00  2.8246297208E-03  2.8089840324E-03  2.7056845302E-01
  5.4950000000E+03  5.6685649188E-01  4.8470027113E+00  2.8315120332E-03  2.8158018564E-03  2.7080128724E-01
  5.5000000000E+03  5.6735882005E-01  4.8447193892E+00  2.8384047820E-03  2.8226299082E-03  2.7103401992E-01
  5.5050000000E+03  5.6786245324E-01  4.8424482719E+00  2.8453079736E-03  2.8294682293E-03  2.7126665123E-01
  5.5100000000E+03  5.6836771328E-01  4.8401915254E+00  2.8522216141E-03  2.8363168345E-03  2.7149918136E-01
  5.5150000000E+03  5.6887296397E-01  4.8379378761E+00  2.8591457097E-03  2.8431756853E-03  2.7173161048E-01
  5.5200000000E+03  5.6937820534E-01  4.8356873170E+00  2.8660802666E-03  2.8500447873E-03  2.7196393877E-01
  5.5250000000E+03  5.6988343738E-01  4.8334398411E+00  2.8730252911E-03  2.8569241462E-03  2.7219616642E-01
  5.5300000000E+03  5.7038866011E-01  4.8311954413E+00  2.8799807892E-03  2.8638137677E-03  2.7242829360E-01
  5.5350000000E+03  5.7089387354E-01  4.8289541106E+00  2.8869467673E-03  2.8707136576E-03  2.7266032050E-01
  5.5400000000E+03  5.7139907767E-01  4.8267158421E+00  2.8939232315E-03  2.8776238215E-03  2.7289224728E-01
  5.5450000000E+03  5.7190427251E-01  4.8244806289E+00  2.9009101881E-03  2.8845442651E-03  2.7312407414E-01
  5.5500000000E+03  5.7240945808E-01  4.8222484640E+00  2.9079076431E-03  2.8914749942E-03  2.7335580125E-01
  5.5550000000E+03  5.7291463438E-01  4.8200193405E+00  2.9149156028E-03  2.8984160144E-03  2.7358742878E-01
  5.5600000000E+03  5.7341980141E-01  4.8177932516E+00  2.9219340734E-03  2.9053673313E-03  2.7381895693E-01
  5.5650000000E+03  5.7392495920E-01  4.8155701903E+00  2.9289630611E-03  2.9123289508E-03  2.7405038587E-01
  5.5700000000E+03  5.7443010773E-01  4.8133501500E+00  2.9360025720E-03  2.9193008784E-03  2.7428171577E-01
  5.5750000000E+03  5.7493524704E-01  4.8111331236E+00  2.9430526124E-03  2.9262831198E-03  2.7451294683E-01
  5.5800000000E+03  5.7544037711E-01  4.8089191046E+00  2.9501131883E-03  2.9332756807E-03  2.7474407921E-01
  5.5850000000E+03  5.7594549797E-01  4.8067080860E+00  2.9571843061E-03  2.9402785669E-03  2.7497511310E-01
  5.5900000000E+03  5.7645060962E-01  4.8045000612E+00  2.9642659718E-03  2.9472917839E-03  2.7520604867E-01
  5.5950000000E+03  5.7695781552E-01  4.8023094180E+00  2.9713581917E-03  2.9543153980E-03  2.7543688611E-01
  5.6000000000E+03  5.7746579957E-01  4.8001270975E+00  2.9784609718E-03  2.9613493774E-03  2.7566762559E-01
  5.6050000000E+03  5.7797377691E-01  4.7979477150E+00  2.9855743184E-03  2.9683937052E-03  2.7589826729E-01
  5.6100000000E+03  5.7848174757E-01  4.7957712640E+00  2.9926982377E-03  2.9754483872E-03  2.7612881143E-01
  5.6150000000E+03  5.7898971154E-01  4.7935977379E+00  2.9998327358E-03  2.9825134289E-03  2.7635925815E-01
  5.6200000000E+03  5.7949766883E-01  4.7914271302E+00  3.0069778189E-03  2.9895888360E-03  2.7658960758E-01
  5.6250000000E+03  5.8000561945E-01  4.7892594343E+00  3.0141334930E-03  2.9966746142E-03  2.7681985987E-01
  5.6300000000E+03  5.8051356340E-01  4.7870946437E+00  3.0212997645E-03  3.0037707691E-03  2.7705001516E-01
  5.6350000000E+03  5.8102150068E-01  4.7849327521E+00  3.0284766394E-03  3.0108773064E-03  2.7728007360E-01
  5.6400000000E+03  5.8152943132E-01  4.7827737529E+00  3.0356641240E-03  3.0179942317E-03  2.7751003532E-01
  5.6450000000E+03  5.8203735530E-01  4.7806176398E+00  3.0428622242E-03  3.0251215506E-03  2.7773990047E-01
  5.6500000000E+03  5.8254527264E-01  4.7784644063E+00  3.0500709464E-03  3.0322592688E-03  2.7796966920E-01
  5.6550000000E+03  5.8305318334E-01  4.7763140459E+00  3.0572902967E-03  3.0394073919E-03  2.7819934164E-01
  5.6600000000E+03  5.8356108741E-01  4.7741665525E+00  3.0645202811E-03  3.0465659255E-03  2.7842891794E-01
  5.6650000000E+03  5.8406898486E-01  4.7720219195E+00  3.0717609059E-03  3.0537348754E-03  2.7865839824E-01
  5.6700000000E+03  5.8457687568E-01  4.7698801407E+00  3.0790121772E-03  3.0609142470E-03  2.7888778269E-01
  5.6750000000E+03  5.8508475990E-01  4.7677412098E+00  3.0862741011E-03  3.0681040461E-03  2.7911707143E-01
  5.6800000000E+03  5.8559263750E-01  4.7656051205E+00  3.0935466838E-03  3.0753042783E-03  2.7934626459E-01
  5.6850000000E+03  5.8610255628E-01  4.7634858244E+00  3.1008299314E-03  3.0825150115E-03  2.7957536233E-01
  5.6900000000E+03  5.8661324615E-01  4.7613746146E+00  3.1081238500E-03  3.0897362133E-03  2.7980436479E-01
  5.6950000000E+03  5.8712393186E-01  4.7592661936E+00  3.1154284458E-03  3.0969678656E-03  2.8003327210E-01
  5.7000000000E+03  5.8763461340E-01  4.7571605554E+00  3.1227437249E-03  3.1042099740E-03  2.8026208442E-01
  5.7050000000E+03  5.8814529078E-01  4.7550576938E+00  3.1300696935E-03  3.1114625441E-03  2.8049080188E-01
  5.7100000000E+03  5.8865596400E-01  4.7529576028E+00  3.1374063576E-03  3.1187255816E-03  2.8071942463E-01
  5.7150000000E+03  5.8916663306E-01  4.7508602761E+00  3.1447537234E-03  3.1259990920E-03  2.8094795280E-01
  5.7200000000E+03  5.8967729798E-01  4.7487657079E+00  3.1521117970E-03  3.1332830810E-03  2.8117638656E-01
  5.7250000000E+03  5.9018795874E-01  4.7466738920E+00  3.1594805845E-03  3.1405775540E-03  2.8140472602E-01
  5.7300000000E+03  5.9069861536E-01  4.7445848225E+00  3.1668600921E-03  3.1478825169E-03  2.8163297135E-01
  5.7350000000E+03  5.9120926785E-01  4.7424984934E+00  3.1742503258E-03  3.1551979750E-03  2.8186112268E-01
  5.7400000000E+03  5.9171991619E-01  4.7404148986E+00  3.1816512918E-03  3.1625239341E-03  2.8208918015E-01
  5.7450000000E+03  5.9223056040E-01  4.7383340322E+00  3.1890629963E-03  3.1698603997E-03  2.8231714391E-01
  5.7500000000E+03  5.9274120049E-01  4.7362558883E+00  3.1964854452E-03  3.1772073774E-03  2.8254501410E-01
  5.7550000000E+03  5.9325183644E-01  4.7341804609E+00  3.2039186447E-03  3.1845648728E-03  2.8277279086E-01
  5.7600000000E+03  5.9376246828E-01  4.7321077442E+00  3.2113626010E-03  3.1919328914E-03  2.8300047434E-01
  5.7650000000E+03  5.9427309599E-01  4.7300377322E+00  3.2188173201E-03  3.1993114389E-03  2.8322806467E-01
  5.7700000000E+03  5.9478371960E-01  4.7279704191E+00  3.2262828081E-03  3.2067005208E-03  2.8345556201E-01
  5.7750000000E+03  5.9529553215E-01  4.7259139059E+00  3.2337590712E-03  3.2141001811E-03  2.8368296649E-01
  5.7800000000E+03  5.9580890726E-01  4.7238706909E+00  3.2412461154E-03  3.2215104381E-03  2.8391027825E-01
  5.7850000000E+03  5.9632228063E-01  4.7218301248E+00  3.2487439468E-03  3.2289312467E-03  2.8413749745E-01
  5.7900000000E+03  5.9683565225E-01  4.7197922019E+00  3.2562525715E-03  3.2363626126E-03  2.8436462422E-01
  5.7950000000E+03  5.9734902213E-01  4.7177569165E+00  3.2637719957E-03  3.2438045415E-03  2.8459165870E-01
  5.8000000000E+03  5.9786239025E-01  4.7157242630E+00  3.2713022253E-03  3.2512570387E-03  2.8481860104E-01
  5.8050000000E+03  5.9837575663E-01  4.7136942357E+00  3.2788432666E-03  3.2587201099E-03  2.8504545138E-01
  5.8100000000E+03  5.9888912127E-01  4.7116668288E+00  3.2863951256E-03  3.2661937606E-03  2.8527220986E-01
  5.8150000000E+03  5.9940248417E-01  4.7096420369E+00  3.2939578083E-03  3.2736779965E-03  2.8549887662E-01
  5.8200000000E+03  5.9991584533E-01  4.7076198542E+00  3.3015313209E-03  3.2811728229E-03  2.8572545182E-01
  5.8250000000E+03  6.0042920475E-01  4.7056002753E+00  3.3091156694E-03  3.2886782456E-03  2.8595193558E-01
  5.8300000000E+03  6.0094256243E-01  4.7035832944E+00  3.3167108599E-03  3.2961942699E-03  2.8617832806E-01
  5.8350000000E+03  6.0145591838E-01  4.7015689060E+00  3.3243168986E-03  3.3037209016E-03  2.8640462939E-01
  5.8400000000E+03  6.0196927260E-01  4.6995571046E+00  3.3319337914E-03  3.3112581460E-03  2.8663083972E-01
  5.8450000000E+03  6.0248262508E-01  4.6975478846E+00  3.3395615445E-03  3.3188060088E-03  2.8685695919E-01
  5.8500000000E+03  6.0299597583E-01  4.6955412406E+00  3.3472001638E-03  3.3263644955E-03  2.8708298794E-01
  5.8550000000E+03  6.0350932485E-01  4.6935371670E+00  3.3548496556E-03  3.3339336115E-03  2.8730892612E-01
  5.8600000000E+03  6.0402267215E-01  4.6915356583E+00  3.3625100258E-03  3.3415133625E-03  2.8753477387E-01
  5.8650000000E+03  6.0453601772E-01  4.6895367091E+00  3.3701812806E-03  3.3491037540E-03  2.8776053133E-01
  5.8700000000E+03  6.0505163880E-01  4.6875557341E+00  3.3778634259E-03  3.3567048694E-03  2.8798619864E-01
  5.8750000000E+03  6.0556767682E-01  4.6855800999E+00  3.3855564680E-03  3.3643166512E-03  2.8821177595E-01
  5.8800000000E+03  6.0608371541E-01  4.6836069778E+00  3.3932604127E-03  3.3719390906E-03  2.8843726339E-01
  5.8850000000E+03  6.0659975456E-01  4.6816363628E+00  3.4009752662E-03  3.3795721932E-03  2.8866266112E-01
  5.8900000000E+03  6.0711579428E-01  4.6796682493E+00  3.4087010345E-03  3.3872159645E-03  2.8888796927E-01
  5.8950000000E+03  6.0763183456E-01  4.6777026322E+00  3.4164377237E-03  3.3948704099E-03  2.8911318798E-01
  5.9000000000E+03  6.0814787539E-01  4.6757395062E+00  3.4241853398E-03  3.4025355351E-03  2.8933831740E-01
  5.9050000000E+03  6.0866391679E-01  4.6737788659E+00  3.4319438890E-03  3.4102113454E-03  2.8956335768E-01
  5.9100000000E+03  6.0917995876E-01  4.6718207062E+00  3.4397133772E-03  3.4178978465E-03  2.8978830894E-01
  5.9150000000E+03  6.0969600128E-01  4.6698650218E+00  3.4474938104E-03  3.4255950438E-03  2.9001317134E-01
  5.9200000000E+03  6.1021204436E-01  4.6679118075E+00  3.4552851948E-03  3.4333029427E-03  2.9023794502E-01
  5.9250000000E+03  6.1072808800E-01  4.6659610581E+00  3.4630875364E-03  3.4410215489E-03  2.9046263011E-01
  5.9300000000E+03  6.1124413220E-01  4.6640127684E+00  3.4709008412E-03  3.4487508677E-03  2.9068722677E-01
  5.9350000000E+03  6.1176017696E-01  4.6620669333E+00  3.4787251152E-03  3.4564909048E-03  2.9091173513E-01
  5.9400000000E+03  6.1227622228E-01  4.6601235475E+00  3.4865603646E-03  3.4642416655E-03  2.9113615534E-01
  5.9450000000E+03  6.1279226815E-01  4.6581826060E+00  3.4944065953E-03  3.4720031553E-03  2.9136048754E-01
  5.9500000000E+03  6.1330831458E-01  4.6562441036E+00  3.5022638133E-03  3.4797753798E-03  2.9158473187E-01
  5.9550000000E+03  6.1382436157E-01  4.6543080351E+00  3.5101320248E-03  3.4875583445E-03  2.9180888847E-01
  5.9600000000E+03  6.1434040911E-01  4.6523743956E+00  3.5180112357E-03  3.4953520547E-03  2.9203295749E-01
  5.9650000000E+03  6.1485897944E-01  4.6504602104E+00  3.5259014520E-03  3.5031566075E-03  2.9225693906E-01
  5.9700000000E+03  6.1537766054E-01  4.6485491445E+00  3.5338026799E-03  3.5109719213E-03  2.9248083334E-01
  5.9750000000E+03  6.1589634442E-01  4.6466404629E+00  3.5417149252E-03  3.5187979979E-03  2.9270464045E-01
  5.9800000000E+03  6.1641503106E-01  4.6447341606E+00  3.5496381941E-03  3.5266348425E-03  2.9292836055E-01
  5.9850000000E+03  6.1693372048E-01  4.6428302325E+00  3.5575724926E-03  3.5344824607E-03  2.9315199378E-01
  5.9900000000E+03  6.1745241266E-01  4.6409286739E+00  3.5655178266E-03  3.5423408580E-03  2.9337554027E-01
  5.9950000000E+03  6.1797110761E-01  4.6390294797E+00  3.5734742022E-03  3.5502100398E-03  2.9359900017E-01
  6.0000000000E+03  6.1848980531E-01  4.6371326451E+00  3.5814416254E-03  3.5580900115E-03  2.9382237363E-01
  6.0050000000E+03  6.1900850578E-01  4.6352381651E+00  3.5894292053E-03  3.5659897632E-03  2.9404566078E-01
  6.0100000000E+03  6.1952720901E-01  4.6333460349E+00  3.5974278748E-03  3.5739003449E-03  2.9426886177E-01
  6.0150000000E+03  6.2004591499E-01  4.6314562496E+00  3.6054376398E-03  3.5818217620E-03  2.9449197673E-01
  6.0200000000E+03  6.2056462373E-01  4.6295688044E+00  3.6134585064E-03  3.5897540202E-03  2.9471500582E-01
  6.0250000000E+03  6.2108333521E-01  4.6276836944E+00  3.6214904807E-03  3.5976971248E-03  2.9493794917E-01
  6.0300000000E+03  6.2160204945E-01  4.6258009148E+00  3.6295335687E-03  3.6056510813E-03  2.9516080692E-01
  6.0350000000E+03  6.2212076643E-01  4.6239204608E+00  3.6375877764E-03  3.6136158953E-03  2.9538357922E-01
  6.0400000000E+03  6.2263948615E-01  4.6220423275E+00  3.6456531099E-03  3.6215915721E-03  2.9560626620E-01
  6.0450000000E+03  6.2315820862E-01  4.6201665103E+00  3.6537295752E-03  3.6295781172E-03  2.9582886802E-01
  6.0500000000E+03  6.2367693383E-01  4.6182930044E+00  3.6618171784E-03  3.6375755361E-03  2.9605138481E-01
  6.0550000000E+03  6.2419566177E-01  4.6164218049E+00  3.6699159254E-03  3.6455838343E-03  2.9627381671E-01
  6.0600000000E+03  6.2471637534E-01  4.6145662014E+00  3.6780258224E-03  3.6536030933E-03  2.9649616387E-01
  6.0650000000E+03  6.2523769110E-01  4.6127168762E+00  3.6861468752E-03  3.6616332660E-03  2.9671842642E-01
  6.0700000000E+03  6.2575901176E-01  4.6108698151E+00  3.6942790900E-03  3.6696743350E-03  2.9694060451E-01
  6.0750000000E+03  6.2628033732E-01  4.6090250136E+00  3.7024224728E-03  3.6777263058E-03  2.9716269829E-01
  6.0800000000E+03  6.2680166775E-01  4.6071824671E+00  3.7105770296E-03  3.6857891837E-03  2.9738470789E-01
  6.0850000000E+03  6.2732300308E-01  4.6053421708E+00  3.7187427664E-03  3.6938629742E-03  2.9760663345E-01
  6.0900000000E+03  6.2784434328E-01  4.6035041203E+00  3.7269196893E-03  3.7019476828E-03  2.9782847511E-01
  6.0950000000E+03  6.2836568835E-01  4.6016683109E+00  3.7351078041E-03  3.7100433149E-03  2.9805023303E-01
  6.1000000000E+03  6.2888703830E-01  4.5998347381E+00  3.7433071171E-03  3.7181498759E-03  2.9827190733E-01
  6.1050000000E+03  6.2940839312E-01  4.5980033973E+00  3.7515176341E-03  3.7262673714E-03  2.9849349817E-01
  6.1100000000E+03  6.2992975280E-01  4.5961742840E+00  3.7597393612E-03  3.7343958067E-03  2.9871500568E-01
  6.1150000000E+03  6.3045111733E-01  4.5943473936E+00  3.7679723044E-03  3.7425351872E-03  2.9893643000E-01
  6.1200000000E+03  6.3097248673E-01  4.5925227217E+00  3.7762164697E-03  3.7506855184E-03  2.9915777128E-01
  6.1250000000E+03  6.3149386097E-01  4.5907002637E+00  3.7844718632E-03  3.7588468057E-03  2.9937902965E-01
  6.1300000000E+03  6.3201524006E-01  4.5888800151E+00  3.7927384907E-03  3.7670190545E-03  2.9960020527E-01
  6.1350000000E+03  6.3253662400E-01  4.5870619715E+00  3.8010163583E-03  3.7752022703E-03  2.9982129826E-01
  6.1400000000E+03  6.3305801278E-01  4.5852461284E+00  3.8093054721E-03  3.7833964585E-03  3.0004230878E-01
  6.1450000000E+03  6.3357940639E-01  4.5834324813E+00  3.8176058379E-03  3.7916016245E-03  3.0026323696E-01
  6.1500000000E+03  6.3410080483E-01  4.5816210258E+00  3.8259174619E-03  3.7998177736E-03  3.0048408294E-01
  6.1550000000E+03  6.3462289178E-01  4.5798162929E+00  3.8342403499E-03  3.8080449391E-03  3.0070484687E-01
  6.1600000000E+03  6.3514684282E-01  4.5780260506E+00  3.8425745081E-03  3.8162831745E-03  3.0092552889E-01
  6.1650000000E+03  6.3567080080E-01  4.5762379598E+00  3.8509199423E-03  3.8245324100E-03  3.0114612914E-01
  6.1700000000E+03  6.3619476572E-01  4.5744520162E+00  3.8592766586E-03  3.8327926510E-03  3.0136664776E-01
  6.1750000000E+03  6.3671873757E-01  4.5726682154E+00  3.8676446630E-03  3.8410639029E-03  3.0158708489E-01
  6.1800000000E+03  6.3724271634E-01  4.5708865532E+00  3.8760239613E-03  3.8493461710E-03  3.0180744068E-01
  6.1850000000E+03  6.3776670202E-01  4.5691070251E+00  3.8844145598E-03  3.8576394609E-03  3.0202771525E-01
  6.1900000000E+03  6.3829069462E-01  4.5673296271E+00  3.8928164642E-03  3.8659437779E-03  3.0224790877E-01
  6.1950000000E+03  6.3881469413E-01  4.5655543547E+00  3.9012296806E-03  3.8742591274E-03  3.0246802136E-01
  6.2000000000E+03  6.3933870054E-01  4.5637812038E+00  3.9096542150E-03  3.8825855147E-03  3.0268805317E-01
  6.2050000000E+03  6.3986271385E-01  4.5620101701E+00  3.9180900733E-03  3.8909229453E-03  3.0290800434E-01
  6.2100000000E+03  6.4038673405E-01  4.5602412494E+00  3.9265372616E-03  3.8992714246E-03  3.0312787501E-01
  6.2150000000E+03  6.4091076113E-01  4.5584744374E+00  3.9349957857E-03  3.9076309579E-03  3.0334766533E-01
  6.2200000000E+03  6.4143479509E-01  4.5567097300E+00  3.9434656517E-03  3.9160015506E-03  3.0356737542E-01
  6.2250000000E+03  6.4195883593E-01  4.5549471229E+00  3.9519468655E-03  3.9243832081E-03  3.0378700544E-01
  6.2300000000E+03  6.4248288364E-01  4.5531866120E+00  3.9604394331E-03  3.9327759358E-03  3.0400655553E-01
  6.2350000000E+03  6.4300693821E-01  4.5514281930E+00  3.9689433605E-03  3.9411797390E-03  3.0422602582E-01
  6.2400000000E+03  6.4353099964E-01  4.5496718619E+00  3.9775914622E-03  3.9497255774E-03  3.0444541646E-01
  6.2450000000E+03  6.4405506792E-01  4.5479176145E+00  3.9862745259E-03  3.9583057570E-03  3.0466472759E-01
  6.2500000000E+03  6.4457914305E-01  4.5461654466E+00  3.9949695298E-03  3.9668975765E-03  3.0488395935E-01
  6.2550000000E+03  6.4510436593E-01  4.5444228373E+00  4.0036764807E-03  3.9755010910E-03  3.0510311188E-01
  6.2600000000E+03  6.4563096024E-01  4.5426912210E+00  4.0123953854E-03  3.9841163167E-03  3.0532218532E-01
  6.2650000000E+03  6.4615756346E-01  4.5409616462E+00  4.0211262505E-03  3.9927432013E-03  3.0554117980E-01
  6.2700000000E+03  6.4668417557E-01  4.5392341090E+00  4.0298690829E-03  4.0013817509E-03  3.0576009541E-01
  6.2750000000E+03  6.4721079658E-01  4.5375086053E+00  4.0386238894E-03  4.0100319716E-03  3.0597893224E-01
  6.2800000000E+03  6.4773742648E-01  4.5357851310E+00  4.0473906766E-03  4.0186938694E-03  3.0619769038E-01
  6.2850000000E+03  6.4826406525E-01  4.5340636823E+00  4.0561694514E-03  4.0273674507E-03  3.0641636994E-01
  6.2900000000E+03  6.4879071289E-01  4.5323442550E+00  4.0649602205E-03  4.0360527213E-03  3.0663497102E-01
  6.2950000000E+03  6.4931736940E-01  4.5306268453E+00  4.0737629906E-03  4.0447496874E-03  3.0685349372E-01
  6.3000000000E+03  6.4984403476E-01  4.5289114491E+00  4.0825777685E-03  4.0534583551E-03  3.0707193815E-01
  6.3050000000E+03  6.5037070898E-01  4.5271980625E+00  4.0914045609E-03  4.0621787305E-03  3.0729030441E-01
  6.3100000000E+03  6.5089739204E-01  4.5254866816E+00  4.1002433746E-03  4.0709108196E-03  3.0750859260E-01
  6.3150000000E+03  6.5142408393E-01  4.5237773024E+00  4.1090942164E-03  4.0796546286E-03  3.0772680283E-01
  6.3200000000E+03  6.5195078466E-01  4.5220699210E+00  4.1179570929E-03  4.0884101636E-03  3.0794493519E-01
  6.3250000000E+03  6.5247749421E-01  4.5203645335E+00  4.1268320109E-03  4.0971774306E-03  3.0816298979E-01
  6.3300000000E+03  6.5300421257E-01  4.5186611359E+00  4.1357189772E-03  4.1059564356E-03  3.0838096673E-01
  6.3350000000E+03  6.5353093975E-01  4.5169597245E+00  4.1446179985E-03  4.1147471849E-03  3.0859886612E-01
  6.3400000000E+03  6.5405767573E-01  4.5152602952E+00  4.1535290815E-03  4.1235496843E-03  3.0881668806E-01
  6.3450000000E+03  6.5458442050E-01  4.5135628443E+00  4.1624522330E-03  4.1323639401E-03  3.0903443264E-01
  6.3500000000E+03  6.5511117406E-01  4.5118673679E+00  4.1713874597E-03  4.1411899583E-03  3.0925209998E-01
