#[MATERIAL DEFINITION FOR MC-GPU: interaction mean free path and sampling data from PENELOPE 2006]
#[MATERIAL NAME]
# Skin (Woodard et al, Bri. Jour. Rad. 59 (1986))               
#[NOMINAL DENSITY (g/cm^3)]
#   1.09000000
#[NUMBER OF DATA VALUES]
#  23002
#[MEAN FREE PATHS (cm)]
#[Energy (eV)     | Rayleigh        | Compton         | Photoelectric   | TOTAL (+pair prod) (cm) | Rayleigh: max cumul prob F^2]
  5.00000E+03  1.7962142747E+00  7.3817082425E+00  2.3891673216E-02  2.3502987128E-02  3.4416051022E-01
  5.00500E+03  1.7982518085E+00  7.3779343952E+00  2.3963861778E-02  2.3573154562E-02  3.4441764501E-01
  5.01000E+03  1.8002896156E+00  7.3741662425E+00  2.4036195841E-02  2.3643458894E-02  3.4467449676E-01
  5.01500E+03  1.8023276958E+00  7.3704037703E+00  2.4108675553E-02  2.3713900242E-02  3.4493106616E-01
  5.02000E+03  1.8043660489E+00  7.3666469642E+00  2.4181301060E-02  2.3784478726E-02  3.4518735395E-01
  5.02500E+03  1.8064046746E+00  7.3628958102E+00  2.4254072509E-02  2.3855194462E-02  3.4544336083E-01
  5.03000E+03  1.8084435727E+00  7.3591502940E+00  2.4326990048E-02  2.3926047570E-02  3.4569908750E-01
  5.03500E+03  1.8104827429E+00  7.3554104017E+00  2.4400053822E-02  2.3997038167E-02  3.4595453468E-01
  5.04000E+03  1.8125221850E+00  7.3516761192E+00  2.4473263980E-02  2.4068166370E-02  3.4620970306E-01
  5.04500E+03  1.8145618989E+00  7.3479474326E+00  2.4546620668E-02  2.4139432298E-02  3.4646459334E-01
  5.05000E+03  1.8166018842E+00  7.3442243279E+00  2.4620124033E-02  2.4210836069E-02  3.4671920623E-01
  5.05500E+03  1.8186731927E+00  7.3406346266E+00  2.4693774222E-02  2.4282384734E-02  3.4697354241E-01
  5.06000E+03  1.8207486486E+00  7.3370659958E+00  2.4767571381E-02  2.4354072400E-02  3.4722760258E-01
  5.06500E+03  1.8228244196E+00  7.3335026219E+00  2.4841515659E-02  2.4425898335E-02  3.4748138743E-01
  5.07000E+03  1.8249005054E+00  7.3299444920E+00  2.4915607201E-02  2.4497862654E-02  3.4773489764E-01
  5.07500E+03  1.8269769059E+00  7.3263915931E+00  2.4989846155E-02  2.4569965477E-02  3.4798813390E-01
  5.08000E+03  1.8290536208E+00  7.3228439125E+00  2.5064232667E-02  2.4642206920E-02  3.4824109689E-01
  5.08500E+03  1.8311306498E+00  7.3193014374E+00  2.5138766885E-02  2.4714587101E-02  3.4849378728E-01
  5.09000E+03  1.8332079926E+00  7.3157641550E+00  2.5213448956E-02  2.4787106138E-02  3.4874620576E-01
  5.09500E+03  1.8352856490E+00  7.3122320526E+00  2.5288279025E-02  2.4859764149E-02  3.4899835300E-01
  5.10000E+03  1.8373636187E+00  7.3087051176E+00  2.5363257242E-02  2.4932561251E-02  3.4925022967E-01
  5.10500E+03  1.8394419014E+00  7.3051833373E+00  2.5438383751E-02  2.5005497560E-02  3.4950183643E-01
  5.11000E+03  1.8415204970E+00  7.3016666992E+00  2.5513658701E-02  2.5078573195E-02  3.4975317396E-01
  5.11500E+03  1.8435994051E+00  7.2981551907E+00  2.5589082238E-02  2.5151788273E-02  3.5000424292E-01
  5.12000E+03  1.8456786255E+00  7.2946487994E+00  2.5664654509E-02  2.5225142910E-02  3.5025504398E-01
  5.12500E+03  1.8477581579E+00  7.2911475128E+00  2.5740375661E-02  2.5298637225E-02  3.5050557778E-01
  5.13000E+03  1.8498380021E+00  7.2876513186E+00  2.5816245841E-02  2.5372271333E-02  3.5075584498E-01
  5.13500E+03  1.8519181578E+00  7.2841602042E+00  2.5892265196E-02  2.5446045351E-02  3.5100584625E-01
  5.14000E+03  1.8539986247E+00  7.2806741576E+00  2.5968433873E-02  2.5519959398E-02  3.5125558223E-01
  5.14500E+03  1.8560794027E+00  7.2771931663E+00  2.6044752018E-02  2.5594013589E-02  3.5150505357E-01
  5.15000E+03  1.8581604913E+00  7.2737172181E+00  2.6121219780E-02  2.5668208041E-02  3.5175426092E-01
  5.15500E+03  1.8602418905E+00  7.2702463008E+00  2.6197837304E-02  2.5742542870E-02  3.5200320492E-01
  5.16000E+03  1.8623235999E+00  7.2667804024E+00  2.6274604737E-02  2.5817018194E-02  3.5225188622E-01
  5.16500E+03  1.8644056192E+00  7.2633195106E+00  2.6351522227E-02  2.5891634129E-02  3.5250030545E-01
  5.17000E+03  1.8664879483E+00  7.2598636134E+00  2.6428589921E-02  2.5966390791E-02  3.5274846326E-01
  5.17500E+03  1.8685705869E+00  7.2564126989E+00  2.6505807965E-02  2.6041288297E-02  3.5299636027E-01
  5.18000E+03  1.8706535347E+00  7.2529667549E+00  2.6583176506E-02  2.6116326762E-02  3.5324399713E-01
  5.18500E+03  1.8727367914E+00  7.2495257695E+00  2.6660695692E-02  2.6191506304E-02  3.5349137446E-01
  5.19000E+03  1.8748203568E+00  7.2460897310E+00  2.6738365669E-02  2.6266827037E-02  3.5373849290E-01
  5.19500E+03  1.8769042307E+00  7.2426586272E+00  2.6816186584E-02  2.6342289079E-02  3.5398535306E-01
  5.20000E+03  1.8789884128E+00  7.2392324466E+00  2.6894158584E-02  2.6417892545E-02  3.5423195557E-01
  5.20500E+03  1.8810729029E+00  7.2358111772E+00  2.6972281816E-02  2.6493637551E-02  3.5447830106E-01
  5.21000E+03  1.8831577007E+00  7.2323948073E+00  2.7050556427E-02  2.6569524214E-02  3.5472439014E-01
  5.21500E+03  1.8852428059E+00  7.2289833252E+00  2.7128982564E-02  2.6645552648E-02  3.5497022343E-01
  5.22000E+03  1.8873282183E+00  7.2255767192E+00  2.7207560374E-02  2.6721722969E-02  3.5521580154E-01
  5.22500E+03  1.8894139377E+00  7.2221749777E+00  2.7286290004E-02  2.6798035293E-02  3.5546112510E-01
  5.23000E+03  1.8914999638E+00  7.2187780892E+00  2.7365171600E-02  2.6874489736E-02  3.5570619470E-01
  5.23500E+03  1.8935862964E+00  7.2153860420E+00  2.7444205310E-02  2.6951086414E-02  3.5595101097E-01
  5.24000E+03  1.8956729352E+00  7.2119988247E+00  2.7523391281E-02  2.7027825440E-02  3.5619557449E-01
  5.24500E+03  1.8977598799E+00  7.2086164257E+00  2.7602729659E-02  2.7104706932E-02  3.5643988589E-01
  5.25000E+03  1.8998471303E+00  7.2052388337E+00  2.7682220592E-02  2.7181731003E-02  3.5668394576E-01
  5.25500E+03  1.9019541390E+00  7.2019452110E+00  2.7761864226E-02  2.7258902900E-02  3.5692775470E-01
  5.26000E+03  1.9040744711E+00  7.1987090268E+00  2.7841660708E-02  2.7336221092E-02  3.5717131331E-01
  5.26500E+03  1.9061951491E+00  7.1954773695E+00  2.7921610186E-02  2.7413682286E-02  3.5741462218E-01
  5.27000E+03  1.9083161726E+00  7.1922502284E+00  2.8001712806E-02  2.7491286597E-02  3.5765768191E-01
  5.27500E+03  1.9104375414E+00  7.1890275930E+00  2.8081968715E-02  2.7569034141E-02  3.5790049310E-01
  5.28000E+03  1.9125592553E+00  7.1858094527E+00  2.8162378060E-02  2.7646925032E-02  3.5814305632E-01
  5.28500E+03  1.9146813139E+00  7.1825957969E+00  2.8242940988E-02  2.7724959385E-02  3.5838537218E-01
  5.29000E+03  1.9168037170E+00  7.1793866153E+00  2.8323657646E-02  2.7803137316E-02  3.5862744124E-01
  5.29500E+03  1.9189264643E+00  7.1761818973E+00  2.8404528181E-02  2.7881458940E-02  3.5886926411E-01
  5.30000E+03  1.9210495556E+00  7.1729816326E+00  2.8485552740E-02  2.7959924372E-02  3.5911084135E-01
  5.30500E+03  1.9231729906E+00  7.1697858107E+00  2.8566731469E-02  2.8038533726E-02  3.5935217355E-01
  5.31000E+03  1.9252967690E+00  7.1665944213E+00  2.8648064517E-02  2.8117287117E-02  3.5959326129E-01
  5.31500E+03  1.9274208905E+00  7.1634074541E+00  2.8729552029E-02  2.8196184661E-02  3.5983410514E-01
  5.32000E+03  1.9295453549E+00  7.1602248988E+00  2.8811194152E-02  2.8275226471E-02  3.6007470567E-01
  5.32500E+03  1.9316701619E+00  7.1570467452E+00  2.8892991034E-02  2.8354412662E-02  3.6031506350E-01
  5.33000E+03  1.9337953113E+00  7.1538729831E+00  2.8974942822E-02  2.8433743348E-02  3.6055517935E-01
  5.33500E+03  1.9359208027E+00  7.1507036022E+00  2.9057049661E-02  2.8513218645E-02  3.6079505388E-01
  5.34000E+03  1.9380466360E+00  7.1475385925E+00  2.9139311700E-02  2.8592838665E-02  3.6103468774E-01
  5.34500E+03  1.9401728108E+00  7.1443779438E+00  2.9221729086E-02  2.8672603525E-02  3.6127408158E-01
  5.35000E+03  1.9422993269E+00  7.1412216460E+00  2.9304301964E-02  2.8752513337E-02  3.6151323603E-01
  5.35500E+03  1.9444261840E+00  7.1380696891E+00  2.9387030483E-02  2.8832568216E-02  3.6175215173E-01
  5.36000E+03  1.9465533819E+00  7.1349220631E+00  2.9469914789E-02  2.8912768276E-02  3.6199082932E-01
  5.36500E+03  1.9486809203E+00  7.1317787580E+00  2.9552955029E-02  2.8993113630E-02  3.6222926944E-01
  5.37000E+03  1.9508087989E+00  7.1286397639E+00  2.9636151349E-02  2.9073604394E-02  3.6246747272E-01
  5.37500E+03  1.9529370175E+00  7.1255050708E+00  2.9719503898E-02  2.9154240679E-02  3.6270543979E-01
  5.38000E+03  1.9550655757E+00  7.1223746688E+00  2.9803012821E-02  2.9235022601E-02  3.6294317128E-01
  5.38500E+03  1.9571944735E+00  7.1192485481E+00  2.9886678266E-02  2.9315950273E-02  3.6318066780E-01
  5.39000E+03  1.9593237104E+00  7.1161266989E+00  2.9970500380E-02  2.9397023808E-02  3.6341793000E-01
  5.39500E+03  1.9614532862E+00  7.1130091113E+00  3.0054479309E-02  2.9478243321E-02  3.6365495847E-01
  5.40000E+03  1.9635832007E+00  7.1098957757E+00  3.0138615201E-02  2.9559608923E-02  3.6389175385E-01
  5.40500E+03  1.9657134536E+00  7.1067866822E+00  3.0222908202E-02  2.9641120729E-02  3.6412831676E-01
  5.41000E+03  1.9678440446E+00  7.1036818213E+00  3.0307358460E-02  2.9722778852E-02  3.6436464779E-01
  5.41500E+03  1.9699749735E+00  7.1005811831E+00  3.0391966121E-02  2.9804583406E-02  3.6460074757E-01
  5.42000E+03  1.9721062401E+00  7.0974847582E+00  3.0476731332E-02  2.9886534502E-02  3.6483661670E-01
  5.42500E+03  1.9742378440E+00  7.0943925369E+00  3.0561654241E-02  2.9968632255E-02  3.6507225580E-01
  5.43000E+03  1.9763697850E+00  7.0913045095E+00  3.0646734994E-02  3.0050876777E-02  3.6530766546E-01
  5.43500E+03  1.9785020629E+00  7.0882206667E+00  3.0731973737E-02  3.0133268182E-02  3.6554284628E-01
  5.44000E+03  1.9806346774E+00  7.0851409988E+00  3.0817370619E-02  3.0215806581E-02  3.6577779888E-01
  5.44500E+03  1.9827676282E+00  7.0820654963E+00  3.0902925786E-02  3.0298492088E-02  3.6601252384E-01
  5.45000E+03  1.9849009151E+00  7.0789941499E+00  3.0988639385E-02  3.0381324816E-02  3.6624702176E-01
  5.45500E+03  1.9870345378E+00  7.0759269501E+00  3.1074511562E-02  3.0464304876E-02  3.6648129324E-01
  5.46000E+03  1.9891684961E+00  7.0728638876E+00  3.1160542465E-02  3.0547432382E-02  3.6671533886E-01
  5.46500E+03  1.9913238511E+00  7.0698901237E+00  3.1246732241E-02  3.0630714027E-02  3.6694915922E-01
  5.47000E+03  1.9934885044E+00  7.0669564151E+00  3.1333081036E-02  3.0714146203E-02  3.6718275491E-01
  5.47500E+03  1.9956535298E+00  7.0640266026E+00  3.1419588998E-02  3.0797726242E-02  3.6741612650E-01
  5.48000E+03  1.9978189270E+00  7.0611006776E+00  3.1506604348E-02  3.0881788661E-02  3.6764927458E-01
  5.48500E+03  1.9999846957E+00  7.0581786312E+00  3.1594061639E-02  3.0966270483E-02  3.6788219973E-01
  5.49000E+03  2.0021508357E+00  7.0552604548E+00  3.1681681454E-02  3.1050903210E-02  3.6811490253E-01
  5.49500E+03  2.0043173467E+00  7.0523461398E+00  3.1769463947E-02  3.1135686961E-02  3.6834738356E-01
  5.50000E+03  2.0064842284E+00  7.0494356775E+00  3.1857409271E-02  3.1220621852E-02  3.6857964339E-01
  5.50500E+03  2.0086514805E+00  7.0465290594E+00  3.1945517577E-02  3.1305708001E-02  3.6881168260E-01
  5.51000E+03  2.0108191029E+00  7.0436262770E+00  3.2033789020E-02  3.1390945525E-02  3.6904350175E-01
  5.51500E+03  2.0129870951E+00  7.0407273216E+00  3.2122223752E-02  3.1476334540E-02  3.6927510141E-01
  5.52000E+03  2.0151554569E+00  7.0378321847E+00  3.2210821926E-02  3.1561875164E-02  3.6950648215E-01
  5.52500E+03  2.0173241881E+00  7.0349408580E+00  3.2299583695E-02  3.1647567513E-02  3.6973764453E-01
  5.53000E+03  2.0194932883E+00  7.0320533328E+00  3.2388509212E-02  3.1733411704E-02  3.6996858911E-01
  5.53500E+03  2.0216627574E+00  7.0291696009E+00  3.2477598630E-02  3.1819407854E-02  3.7019931646E-01
  5.54000E+03  2.0238325950E+00  7.0262896537E+00  3.2566852102E-02  3.1905556080E-02  3.7042982714E-01
  5.54500E+03  2.0260028009E+00  7.0234134830E+00  3.2656269780E-02  3.1991856497E-02  3.7066012169E-01
  5.55000E+03  2.0281733748E+00  7.0205410803E+00  3.2745851818E-02  3.2078309222E-02  3.7089020068E-01
  5.55500E+03  2.0303443164E+00  7.0176724374E+00  3.2835598369E-02  3.2164914373E-02  3.7112006465E-01
  5.56000E+03  2.0325156254E+00  7.0148075459E+00  3.2925509586E-02  3.2251672064E-02  3.7134971416E-01
  5.56500E+03  2.0346873017E+00  7.0119463976E+00  3.3015585621E-02  3.2338582412E-02  3.7157914976E-01
  5.57000E+03  2.0368593448E+00  7.0090889842E+00  3.3105826628E-02  3.2425645534E-02  3.7180837198E-01
  5.57500E+03  2.0390317547E+00  7.0062352975E+00  3.3196232759E-02  3.2512861544E-02  3.7203738139E-01
  5.58000E+03  2.0412045309E+00  7.0033853293E+00  3.3286804168E-02  3.2600230560E-02  3.7226617851E-01
  5.58500E+03  2.0433776732E+00  7.0005390714E+00  3.3377541007E-02  3.2687752697E-02  3.7249476389E-01
  5.59000E+03  2.0455511814E+00  6.9976965158E+00  3.3468443430E-02  3.2775428071E-02  3.7272313807E-01
  5.59500E+03  2.0477250552E+00  6.9948576542E+00  3.3559511589E-02  3.2863256798E-02  3.7295130158E-01
  5.60000E+03  2.0498992943E+00  6.9920224785E+00  3.3650745637E-02  3.2951238992E-02  3.7317925497E-01
  5.60500E+03  2.0520738985E+00  6.9891909808E+00  3.3742145728E-02  3.3039374771E-02  3.7340699876E-01
  5.61000E+03  2.0542488675E+00  6.9863631529E+00  3.3833712015E-02  3.3127664249E-02  3.7363453349E-01
  5.61500E+03  2.0564242010E+00  6.9835389869E+00  3.3925444649E-02  3.3216107541E-02  3.7386185968E-01
  5.62000E+03  2.0585998987E+00  6.9807184747E+00  3.4017343786E-02  3.3304704764E-02  3.7408897786E-01
  5.62500E+03  2.0607759605E+00  6.9779016083E+00  3.4109409576E-02  3.3393456031E-02  3.7431588856E-01
  5.63000E+03  2.0629523860E+00  6.9750883799E+00  3.4201642174E-02  3.3482361459E-02  3.7454259231E-01
  5.63500E+03  2.0651291750E+00  6.9722787815E+00  3.4294041732E-02  3.3571421163E-02  3.7476908962E-01
  5.64000E+03  2.0673063272E+00  6.9694728052E+00  3.4386608404E-02  3.3660635257E-02  3.7499538102E-01
  5.64500E+03  2.0694838424E+00  6.9666704431E+00  3.4479342342E-02  3.3750003856E-02  3.7522146702E-01
  5.65000E+03  2.0716617203E+00  6.9638716874E+00  3.4572243699E-02  3.3839527075E-02  3.7544734822E-01
  5.65500E+03  2.0738399606E+00  6.9610765302E+00  3.4665312629E-02  3.3929205030E-02  3.7567302523E-01
  5.66000E+03  2.0760185631E+00  6.9582849638E+00  3.4758549284E-02  3.4019037834E-02  3.7589849860E-01
  5.66500E+03  2.0781975275E+00  6.9554969803E+00  3.4851953818E-02  3.4109025602E-02  3.7612376891E-01
  5.67000E+03  2.0803768535E+00  6.9527125720E+00  3.4945526383E-02  3.4199168449E-02  3.7634883670E-01
  5.67500E+03  2.0825565410E+00  6.9499317313E+00  3.5039267133E-02  3.4289466490E-02  3.7657370255E-01
  5.68000E+03  2.0847402651E+00  6.9471693411E+00  3.5133176220E-02  3.4379921202E-02  3.7679836700E-01
  5.68500E+03  2.0869482128E+00  6.9445069940E+00  3.5227253798E-02  3.4470540234E-02  3.7702283061E-01
  5.69000E+03  2.0891565548E+00  6.9418480064E+00  3.5321500019E-02  3.4561314888E-02  3.7724709395E-01
  5.69500E+03  2.0913652908E+00  6.9391923710E+00  3.5415915037E-02  3.4652245277E-02  3.7747115754E-01
  5.70000E+03  2.0935744205E+00  6.9365400808E+00  3.5510499005E-02  3.4743331517E-02  3.7769502196E-01
  5.70500E+03  2.0957839437E+00  6.9338911286E+00  3.5605252075E-02  3.4834573722E-02  3.7791868773E-01
  5.71000E+03  2.0979938601E+00  6.9312455072E+00  3.5700174401E-02  3.4925972006E-02  3.7814215542E-01
  5.71500E+03  2.1002041695E+00  6.9286032095E+00  3.5795266136E-02  3.5017526483E-02  3.7836542555E-01
  5.72000E+03  2.1024148714E+00  6.9259642286E+00  3.5890527433E-02  3.5109237267E-02  3.7858849868E-01
  5.72500E+03  2.1046259658E+00  6.9233285572E+00  3.5985958445E-02  3.5201104473E-02  3.7881137533E-01
  5.73000E+03  2.1068374523E+00  6.9206961884E+00  3.6081559324E-02  3.5293128214E-02  3.7903405606E-01
  5.73500E+03  2.1090493306E+00  6.9180671152E+00  3.6177341712E-02  3.5385319593E-02  3.7925654139E-01
  5.74000E+03  2.1112616004E+00  6.9154413306E+00  3.6273307421E-02  3.5477680311E-02  3.7947883186E-01
  5.74500E+03  2.1134742615E+00  6.9128188276E+00  3.6369443583E-02  3.5570198022E-02  3.7970092799E-01
  5.75000E+03  2.1156873137E+00  6.9101995992E+00  3.6465750350E-02  3.5662872839E-02  3.7992283033E-01
  5.75500E+03  2.1179007566E+00  6.9075836386E+00  3.6562227876E-02  3.5755704876E-02  3.8014453939E-01
  5.76000E+03  2.1201145900E+00  6.9049709387E+00  3.6658876315E-02  3.5848694247E-02  3.8036605570E-01
  5.76500E+03  2.1223288135E+00  6.9023614928E+00  3.6755695819E-02  3.5941841065E-02  3.8058737979E-01
  5.77000E+03  2.1245434270E+00  6.8997552939E+00  3.6852686542E-02  3.6035145444E-02  3.8080851217E-01
  5.77500E+03  2.1267584302E+00  6.8971523352E+00  3.6949848637E-02  3.6128607497E-02  3.8102945338E-01
  5.78000E+03  2.1289738228E+00  6.8945526099E+00  3.7047182259E-02  3.6222227338E-02  3.8125020393E-01
  5.78500E+03  2.1311896044E+00  6.8919561111E+00  3.7144687559E-02  3.6316005080E-02  3.8147076433E-01
  5.79000E+03  2.1334057750E+00  6.8893628322E+00  3.7242364692E-02  3.6409940837E-02  3.8169113510E-01
  5.79500E+03  2.1356223341E+00  6.8867727662E+00  3.7340213811E-02  3.6504034721E-02  3.8191131675E-01
  5.80000E+03  2.1378392816E+00  6.8841859065E+00  3.7438235070E-02  3.6598286846E-02  3.8213130980E-01
  5.80500E+03  2.1400566171E+00  6.8816022463E+00  3.7536428621E-02  3.6692697324E-02  3.8235111475E-01
  5.81000E+03  2.1422743404E+00  6.8790217789E+00  3.7634794618E-02  3.6787266269E-02  3.8257073211E-01
  5.81500E+03  2.1444924512E+00  6.8764444977E+00  3.7733333216E-02  3.6881993793E-02  3.8279016240E-01
  5.82000E+03  2.1467109493E+00  6.8738703960E+00  3.7832044566E-02  3.6976880009E-02  3.8300940610E-01
  5.82500E+03  2.1489298344E+00  6.8712994670E+00  3.7930928823E-02  3.7071925029E-02  3.8322846373E-01
  5.83000E+03  2.1511491062E+00  6.8687317043E+00  3.8029986139E-02  3.7167128967E-02  3.8344733579E-01
  5.83500E+03  2.1533687645E+00  6.8661671011E+00  3.8129216669E-02  3.7262491935E-02  3.8366602278E-01
  5.84000E+03  2.1555888090E+00  6.8636056509E+00  3.8228620566E-02  3.7358014045E-02  3.8388452518E-01
  5.84500E+03  2.1578092394E+00  6.8610473471E+00  3.8328197983E-02  3.7453695409E-02  3.8410284351E-01
  5.85000E+03  2.1600300555E+00  6.8584921832E+00  3.8427949073E-02  3.7549536140E-02  3.8432097825E-01
  5.85500E+03  2.1622512570E+00  6.8559401526E+00  3.8527873991E-02  3.7645536350E-02  3.8453892990E-01
  5.86000E+03  2.1644728436E+00  6.8533912489E+00  3.8627972889E-02  3.7741696151E-02  3.8475669895E-01
  5.86500E+03  2.1666948151E+00  6.8508454655E+00  3.8728245921E-02  3.7838015655E-02  3.8497428588E-01
  5.87000E+03  2.1689171713E+00  6.8483027959E+00  3.8828693241E-02  3.7934494973E-02  3.8519169119E-01
  5.87500E+03  2.1711399118E+00  6.8457632337E+00  3.8929315001E-02  3.8031134219E-02  3.8540891536E-01
  5.88000E+03  2.1733630365E+00  6.8432267725E+00  3.9030111356E-02  3.8127933502E-02  3.8562595887E-01
  5.88500E+03  2.1755865449E+00  6.8406934058E+00  3.9131082459E-02  3.8224892936E-02  3.8584282221E-01
  5.89000E+03  2.1778104370E+00  6.8381631272E+00  3.9232228463E-02  3.8322012631E-02  3.8605950586E-01
  5.89500E+03  2.1800347123E+00  6.8356359305E+00  3.9333549521E-02  3.8419292699E-02  3.8627601029E-01
  5.90000E+03  2.1822593708E+00  6.8331118091E+00  3.9435045788E-02  3.8516733251E-02  3.8649233599E-01
  5.90500E+03  2.1844844120E+00  6.8305907567E+00  3.9536717416E-02  3.8614334399E-02  3.8670848344E-01
  5.91000E+03  2.1867305642E+00  6.8281574035E+00  3.9638564560E-02  3.8712105472E-02  3.8692445310E-01
  5.91500E+03  2.1889814596E+00  6.8257446541E+00  3.9740587372E-02  3.8810039370E-02  3.8714024545E-01
  5.92000E+03  2.1912327671E+00  6.8233347947E+00  3.9842786006E-02  3.8908134289E-02  3.8735586097E-01
  5.92500E+03  2.1934844864E+00  6.8209278197E+00  3.9945160616E-02  3.9006390337E-02  3.8757130011E-01
  5.93000E+03  2.1957366173E+00  6.8185237229E+00  4.0047711355E-02  3.9104807628E-02  3.8778656336E-01
  5.93500E+03  2.1979891595E+00  6.8161224987E+00  4.0150438376E-02  3.9203386272E-02  3.8800165117E-01
  5.94000E+03  2.2002421127E+00  6.8137241411E+00  4.0253341834E-02  3.9302126380E-02  3.8821656402E-01
  5.94500E+03  2.2024954766E+00  6.8113286443E+00  4.0356421880E-02  3.9401028063E-02  3.8843130236E-01
  5.95000E+03  2.2047492511E+00  6.8089360024E+00  4.0459678670E-02  3.9500091433E-02  3.8864586667E-01
  5.95500E+03  2.2070034357E+00  6.8065462098E+00  4.0563112357E-02  3.9599316600E-02  3.8886025732E-01
  5.96000E+03  2.2092580303E+00  6.8041592606E+00  4.0666723093E-02  3.9698703675E-02  3.8907447477E-01
  5.96500E+03  2.2115130346E+00  6.8017751490E+00  4.0770511033E-02  3.9798252768E-02  3.8928851949E-01
  5.97000E+03  2.2137684482E+00  6.7993938694E+00  4.0874476331E-02  3.9897963992E-02  3.8950239199E-01
  5.97500E+03  2.2160242710E+00  6.7970154159E+00  4.0978619138E-02  3.9997837454E-02  3.8971609275E-01
  5.98000E+03  2.2182805026E+00  6.7946397828E+00  4.1082939610E-02  4.0097873268E-02  3.8992962228E-01
  5.98500E+03  2.2205371429E+00  6.7922669645E+00  4.1187437899E-02  4.0198071542E-02  3.9014298105E-01
  5.99000E+03  2.2227941914E+00  6.7898969553E+00  4.1292114160E-02  4.0298432387E-02  3.9035616955E-01
  5.99500E+03  2.2250516481E+00  6.7875297495E+00  4.1396968545E-02  4.0398955913E-02  3.9056918828E-01
  6.00000E+03  2.2273095125E+00  6.7851653415E+00  4.1502001208E-02  4.0499642230E-02  3.9078203770E-01
  6.00500E+03  2.2295677844E+00  6.7828037255E+00  4.1607737303E-02  4.0600991351E-02  3.9099471832E-01
  6.01000E+03  2.2318264637E+00  6.7804448961E+00  4.1713654227E-02  4.0702505529E-02  3.9120723059E-01
  6.01500E+03  2.2340855499E+00  6.7780888476E+00  4.1819752136E-02  4.0804184876E-02  3.9141957502E-01
  6.02000E+03  2.2363450428E+00  6.7757355744E+00  4.1926031189E-02  4.0906029506E-02  3.9163175207E-01
  6.02500E+03  2.2386049422E+00  6.7733850709E+00  4.2032491543E-02  4.1008039532E-02  3.9184376221E-01
  6.03000E+03  2.2408652478E+00  6.7710373317E+00  4.2139133356E-02  4.1110215067E-02  3.9205560593E-01
  6.03500E+03  2.2431259594E+00  6.7686923511E+00  4.2245956786E-02  4.1212556224E-02  3.9226728369E-01
  6.04000E+03  2.2453870766E+00  6.7663501236E+00  4.2352961992E-02  4.1315063114E-02  3.9247879597E-01
  6.04500E+03  2.2476485993E+00  6.7640106437E+00  4.2460149130E-02  4.1417735853E-02  3.9269014323E-01
  6.05000E+03  2.2499105271E+00  6.7616739060E+00  4.2567518359E-02  4.1520574551E-02  3.9290132595E-01
  6.05500E+03  2.2521728597E+00  6.7593399049E+00  4.2675069836E-02  4.1623579321E-02  3.9311234459E-01
  6.06000E+03  2.2544355970E+00  6.7570086351E+00  4.2782803719E-02  4.1726750276E-02  3.9332319961E-01
  6.06500E+03  2.2566987387E+00  6.7546800909E+00  4.2890720167E-02  4.1830087528E-02  3.9353389148E-01
  6.07000E+03  2.2589622845E+00  6.7523542671E+00  4.2998819337E-02  4.1933591189E-02  3.9374442067E-01
  6.07500E+03  2.2612262341E+00  6.7500311582E+00  4.3107101387E-02  4.2037261372E-02  3.9395478762E-01
  6.08000E+03  2.2634905873E+00  6.7477107588E+00  4.3215566475E-02  4.2141098188E-02  3.9416499280E-01
  6.08500E+03  2.2657553438E+00  6.7453930635E+00  4.3324214758E-02  4.2245101749E-02  3.9437503666E-01
  6.09000E+03  2.2680205034E+00  6.7430780670E+00  4.3433046396E-02  4.2349272169E-02  3.9458491967E-01
  6.09500E+03  2.2702860658E+00  6.7407657639E+00  4.3542061545E-02  4.2453609557E-02  3.9479464228E-01
  6.10000E+03  2.2725520307E+00  6.7384561488E+00  4.3651260363E-02  4.2558114026E-02  3.9500420493E-01
  6.10500E+03  2.2748183979E+00  6.7361492164E+00  4.3760643009E-02  4.2662785688E-02  3.9521360809E-01
  6.11000E+03  2.2770851671E+00  6.7338449615E+00  4.3870209640E-02  4.2767624654E-02  3.9542285219E-01
  6.11500E+03  2.2793523381E+00  6.7315433787E+00  4.3979960414E-02  4.2872631035E-02  3.9563193770E-01
  6.12000E+03  2.2816199106E+00  6.7292444627E+00  4.4089895490E-02  4.2977804943E-02  3.9584086504E-01
  6.12500E+03  2.2838878844E+00  6.7269482084E+00  4.4200015024E-02  4.3083146489E-02  3.9604963469E-01
  6.13000E+03  2.2861562592E+00  6.7246546103E+00  4.4310319176E-02  4.3188655785E-02  3.9625824706E-01
  6.13500E+03  2.2884250347E+00  6.7223636634E+00  4.4420808103E-02  4.3294332941E-02  3.9646670262E-01
  6.14000E+03  2.2906942107E+00  6.7200753623E+00  4.4531481962E-02  4.3400178069E-02  3.9667500179E-01
  6.14500E+03  2.2929800896E+00  6.7178564384E+00  4.4642340913E-02  4.3506199946E-02  3.9688314502E-01
  6.15000E+03  2.2952729386E+00  6.7156668330E+00  4.4753385112E-02  4.3612393580E-02  3.9709113276E-01
  6.15500E+03  2.2975662143E+00  6.7134797198E+00  4.4864614718E-02  4.3718755612E-02  3.9729896542E-01
  6.16000E+03  2.2998599162E+00  6.7112950939E+00  4.4976029889E-02  4.3825286155E-02  3.9750664346E-01
  6.16500E+03  2.3021540442E+00  6.7091129507E+00  4.5087630783E-02  4.3931985320E-02  3.9771416730E-01
  6.17000E+03  2.3044485980E+00  6.7069332851E+00  4.5199417558E-02  4.4038853216E-02  3.9792153739E-01
  6.17500E+03  2.3067435772E+00  6.7047560925E+00  4.5311390371E-02  4.4145889956E-02  3.9812875414E-01
  6.18000E+03  2.3090389818E+00  6.7025813679E+00  4.5423549381E-02  4.4253095649E-02  3.9833581799E-01
  6.18500E+03  2.3113348113E+00  6.7004091066E+00  4.5535894746E-02  4.4360470407E-02  3.9854272937E-01
  6.19000E+03  2.3136310655E+00  6.6982393039E+00  4.5648426623E-02  4.4468014340E-02  3.9874948871E-01
  6.19500E+03  2.3159277441E+00  6.6960719549E+00  4.5761145171E-02  4.4575727558E-02  3.9895609643E-01
  6.20000E+03  2.3182248470E+00  6.6939070550E+00  4.5874050548E-02  4.4683610172E-02  3.9916255296E-01
  6.20500E+03  2.3205223737E+00  6.6917445993E+00  4.5987142912E-02  4.4791662292E-02  3.9936885872E-01
  6.21000E+03  2.3228203241E+00  6.6895845831E+00  4.6100422420E-02  4.4899884028E-02  3.9957501413E-01
  6.21500E+03  2.3251186980E+00  6.6874270018E+00  4.6213889231E-02  4.5008275491E-02  3.9978101963E-01
  6.22000E+03  2.3274174949E+00  6.6852718506E+00  4.6327543503E-02  4.5116836790E-02  3.9998687561E-01
  6.22500E+03  2.3297167147E+00  6.6831191248E+00  4.6441385394E-02  4.5225568035E-02  4.0019258251E-01
  6.23000E+03  2.3320163571E+00  6.6809688198E+00  4.6555415062E-02  4.5334469336E-02  4.0039814074E-01
  6.23500E+03  2.3343164219E+00  6.6788209310E+00  4.6669632665E-02  4.5443540803E-02  4.0060355072E-01
  6.24000E+03  2.3366169087E+00  6.6766754535E+00  4.6784038361E-02  4.5552782545E-02  4.0080881286E-01
  6.24500E+03  2.3389178174E+00  6.6745323829E+00  4.6898632307E-02  4.5662194672E-02  4.0101392757E-01
  6.25000E+03  2.3412191476E+00  6.6723917145E+00  4.7013414663E-02  4.5771777294E-02  4.0121889527E-01
  6.25500E+03  2.3435208992E+00  6.6702534437E+00  4.7128385586E-02  4.5881530519E-02  4.0142371637E-01
  6.26000E+03  2.3458230717E+00  6.6681175659E+00  4.7243545235E-02  4.5991454458E-02  4.0162839128E-01
  6.26500E+03  2.3481256651E+00  6.6659840765E+00  4.7358893766E-02  4.6101549218E-02  4.0183292040E-01
  6.27000E+03  2.3504286790E+00  6.6638529709E+00  4.7474431339E-02  4.6211814910E-02  4.0203730414E-01
  6.27500E+03  2.3527321131E+00  6.6617242445E+00  4.7590158112E-02  4.6322251642E-02  4.0224154292E-01
  6.28000E+03  2.3550359673E+00  6.6595978929E+00  4.7706074242E-02  4.6432859524E-02  4.0244563713E-01
  6.28500E+03  2.3573402412E+00  6.6574739115E+00  4.7822179887E-02  4.6543638663E-02  4.0264958718E-01
  6.29000E+03  2.3596449346E+00  6.6553522957E+00  4.7938475207E-02  4.6654589169E-02  4.0285339346E-01
  6.29500E+03  2.3619500472E+00  6.6532330411E+00  4.8054960358E-02  4.6765711150E-02  4.0305705639E-01
  6.30000E+03  2.3642555788E+00  6.6511161431E+00  4.8171635500E-02  4.6877004715E-02  4.0326057636E-01
  6.30500E+03  2.3665615292E+00  6.6490015972E+00  4.8288500789E-02  4.6988469973E-02  4.0346395377E-01
  6.31000E+03  2.3688678980E+00  6.6468893991E+00  4.8405556385E-02  4.7100107031E-02  4.0366718902E-01
  6.31500E+03  2.3711746850E+00  6.6447795441E+00  4.8522802444E-02  4.7211915998E-02  4.0387028250E-01
  6.32000E+03  2.3734818899E+00  6.6426720280E+00  4.8640239127E-02  4.7323896982E-02  4.0407323462E-01
  6.32500E+03  2.3757895126E+00  6.6405668461E+00  4.8757866590E-02  4.7436050091E-02  4.0427604575E-01
  6.33000E+03  2.3780975527E+00  6.6384639942E+00  4.8875684991E-02  4.7548375434E-02  4.0447871631E-01
  6.33500E+03  2.3804060100E+00  6.6363634677E+00  4.8993694490E-02  4.7660873117E-02  4.0468124667E-01
  6.34000E+03  2.3827148842E+00  6.6342652623E+00  4.9111895244E-02  4.7773543249E-02  4.0488363723E-01
  6.34500E+03  2.3850241752E+00  6.6321693736E+00  4.9230287410E-02  4.7886385937E-02  4.0508588838E-01
  6.35000E+03  2.3873338825E+00  6.6300757972E+00  4.9348871148E-02  4.7999401290E-02  4.0528800051E-01
  6.35500E+03  2.3896440060E+00  6.6279845287E+00  4.9467646616E-02  4.8112589414E-02  4.0548997401E-01
  6.36000E+03  2.3919545455E+00  6.6258955638E+00  4.9586613971E-02  4.8225950417E-02  4.0569180926E-01
  6.36500E+03  2.3942655006E+00  6.6238088982E+00  4.9705773372E-02  4.8339484406E-02  4.0589350664E-01
  6.37000E+03  2.3965768711E+00  6.6217245274E+00  4.9825124977E-02  4.8453191488E-02  4.0609506654E-01
  6.37500E+03  2.3988886568E+00  6.6196424473E+00  4.9944668944E-02  4.8567071772E-02  4.0629648935E-01
  6.38000E+03  2.4012008575E+00  6.6175626533E+00  5.0064405432E-02  4.8681125363E-02  4.0649777544E-01
  6.38500E+03  2.4035134728E+00  6.6154851414E+00  5.0184334598E-02  4.8795352368E-02  4.0669892520E-01
  6.39000E+03  2.4058415174E+00  6.6134712502E+00  5.0304456601E-02  4.8909762456E-02  4.0689993901E-01
  6.39500E+03  2.4081758180E+00  6.6114833125E+00  5.0424771599E-02  4.9024349964E-02  4.0710081724E-01
  6.40000E+03  2.4105105565E+00  6.6094975254E+00  5.0545279750E-02  4.9139111308E-02  4.0730156027E-01
  6.40500E+03  2.4128457325E+00  6.6075138848E+00  5.0665981212E-02  4.9254046594E-02  4.0750216848E-01
  6.41000E+03  2.4151813459E+00  6.6055323867E+00  5.0786876144E-02  4.9369155930E-02  4.0770264225E-01
  6.41500E+03  2.4175173964E+00  6.6035530272E+00  5.0907964704E-02  4.9484439422E-02  4.0790298195E-01
