#[MATERIAL DEFINITION FOR MC-GPU: interaction mean free path and sampling data from PENELOPE 2006]
#[MATERIAL NAME]
# TUNGSTEN  (74)                                                
#[NOMINAL DENSITY (g/cm^3)]
#  19.300
#[NUMBER OF DATA VALUES]
#  23002
#[MEAN FREE PATHS (cm) (ie, average distance between interactions)]
#[Energy (eV)     | Rayleigh        | Compton         | Photoelectric   | TOTAL (+pair prod) (cm) | Rayleigh: max cumul prob F^2]
  5.00000E3  7.0099395830E-3  1.3874342946  9.4965619488E-5  9.3689962474E-5  1.1986263441E-1
  5.00500E3  7.0138689443E-3  1.3866020353  9.5205014748E-5  9.3923662725E-5  1.2003288532E-1
  5.01000E3  7.0177965814E-3  1.3857711056  9.5444773550E-5  9.4157706876E-5  1.2020314514E-1
  5.01500E3  7.0217224967E-3  1.3849415019  9.5684896082E-5  9.4392095066E-5  1.2037341369E-1
  5.02000E3  7.0256466928E-3  1.3841132209  9.5925382533E-5  9.4626827436E-5  1.2054369081E-1
  5.02500E3  7.0295691722E-3  1.3832862590  9.6166233090E-5  9.4861904127E-5  1.2071397633E-1
  5.03000E3  7.0334899371E-3  1.3824606129  9.6407447942E-5  9.5097325279E-5  1.2088427008E-1
  5.03500E3  7.0374089902E-3  1.3816362793  9.6649027277E-5  9.5333091032E-5  1.2105457190E-1
  5.04000E3  7.0413263339E-3  1.3808132546  9.6890971283E-5  9.5569201526E-5  1.2122488163E-1
  5.04500E3  7.0452419705E-3  1.3799915355  9.7133280148E-5  9.5805656901E-5  1.2139519909E-1
  5.05000E3  7.0491559026E-3  1.3791711187  9.7375954059E-5  9.6042457296E-5  1.2156552412E-1
  5.05500E3  7.0530681326E-3  1.3783520008  9.7618993204E-5  9.6279602852E-5  1.2173585655E-1
  5.06000E3  7.0569786628E-3  1.3775341785  9.7862397772E-5  9.6517093706E-5  1.2190619623E-1
  5.06500E3  7.0608874958E-3  1.3767176484  9.8106167949E-5  9.6754929999E-5  1.2207654300E-1
  5.07000E3  7.0647946339E-3  1.3759024073  9.8350303923E-5  9.6993111870E-5  1.2224689667E-1
  5.07500E3  7.0687000795E-3  1.3750884518  9.8594805880E-5  9.7231639457E-5  1.2241725710E-1
  5.08000E3  7.0726038350E-3  1.3742757786  9.8839674010E-5  9.7470512900E-5  1.2258762413E-1
  5.08500E3  7.0765565098E-3  1.3734651704  9.9084908498E-5  9.7709741988E-5  1.2275799758E-1
  5.09000E3  7.0805124312E-3  1.3726559126  9.9330509532E-5  9.7949318226E-5  1.2292837731E-1
  5.09500E3  7.0844666767E-3  1.3718479255  9.9576477298E-5  9.8189240817E-5  1.2309876314E-1
  5.10000E3  7.0884192487E-3  1.3710412058  9.9822811984E-5  9.8429509899E-5  1.2326915492E-1
  5.10500E3  7.0923701495E-3  1.3702357503  1.0006951378E-4  9.8670125609E-5  1.2343955249E-1
  5.11000E3  7.0963193814E-3  1.3694315559  1.0031658286E-4  9.8911088088E-5  1.2360995569E-1
  5.11500E3  7.1002669468E-3  1.3686286192  1.0056401943E-4  9.9152397471E-5  1.2378036436E-1
  5.12000E3  7.1042128481E-3  1.3678269371  1.0081182366E-4  9.9394053898E-5  1.2395077835E-1
  5.12500E3  7.1081570875E-3  1.3670265065  1.0105999575E-4  9.9636057506E-5  1.2412119749E-1
  5.13000E3  7.1120996673E-3  1.3662273240  1.0130853587E-4  9.9878408433E-5  1.2429162163E-1
  5.13500E3  7.1160405900E-3  1.3654293867  1.0155744422E-4  1.0012110682E-4  1.2446205060E-1
  5.14000E3  7.1199798577E-3  1.3646326913  1.0180672098E-4  1.0036415279E-4  1.2463248427E-1
  5.14500E3  7.1239174728E-3  1.3638372347  1.0205636634E-4  1.0060754650E-4  1.2480292246E-1
  5.15000E3  7.1278534376E-3  1.3630430137  1.0230638048E-4  1.0085128807E-4  1.2497336502E-1
  5.15500E3  7.1317877544E-3  1.3622500253  1.0255676360E-4  1.0109537765E-4  1.2514381181E-1
  5.16000E3  7.1357204255E-3  1.3614582664  1.0280751586E-4  1.0133981536E-4  1.2531426265E-1
  5.16500E3  7.1396823106E-3  1.3606681921  1.0305863747E-4  1.0158460761E-4  1.2548471741E-1
  5.17000E3  7.1436674582E-3  1.3598797095  1.0331012861E-4  1.0182975337E-4  1.2565517592E-1
  5.17500E3  7.1476509746E-3  1.3590924453  1.0356198946E-4  1.0207524777E-4  1.2582563803E-1
  5.18000E3  7.1516328623E-3  1.3583063965  1.0381422021E-4  1.0232109095E-4  1.2599610360E-1
  5.18500E3  7.1556131233E-3  1.3575215601  1.0406682104E-4  1.0256728303E-4  1.2616657248E-1
  5.19000E3  7.1595917599E-3  1.3567379329  1.0431979214E-4  1.0281382415E-4  1.2633704456E-1
  5.19500E3  7.1635687744E-3  1.3559555120  1.0457313370E-4  1.0306071446E-4  1.2650751970E-1
  5.20000E3  7.1675441689E-3  1.3551742944  1.0482684589E-4  1.0330795408E-4  1.2667799773E-1
  5.20500E3  7.1715179458E-3  1.3543942770  1.0508092891E-4  1.0355554315E-4  1.2684847847E-1
  5.21000E3  7.1754901071E-3  1.3536154569  1.0533538294E-4  1.0380348181E-4  1.2701896178E-1
  5.21500E3  7.1794606552E-3  1.3528378310  1.0559020816E-4  1.0405177019E-4  1.2718944749E-1
  5.22000E3  7.1834295922E-3  1.3520613964  1.0584540476E-4  1.0430040843E-4  1.2735993543E-1
  5.22500E3  7.1873969203E-3  1.3512861502  1.0610097293E-4  1.0454939666E-4  1.2753042544E-1
  5.23000E3  7.1913626416E-3  1.3505120894  1.0635691284E-4  1.0479873501E-4  1.2770091737E-1
  5.23500E3  7.1953267585E-3  1.3497392110  1.0661322469E-4  1.0504842363E-4  1.2787141106E-1
  5.24000E3  7.1992892730E-3  1.3489675121  1.0686990865E-4  1.0529846265E-4  1.2804190634E-1
  5.24500E3  7.2032501874E-3  1.3481969898  1.0712696492E-4  1.0554885220E-4  1.2821240305E-1
  5.25000E3  7.2072616930E-3  1.3474283817  1.0738439367E-4  1.0579960366E-4  1.2838290104E-1
  5.25500E3  7.2112754041E-3  1.3466609967  1.0764219510E-4  1.0605070682E-4  1.2855340014E-1
  5.26000E3  7.2152875301E-3  1.3458947779  1.0790036938E-4  1.0630216101E-4  1.2872390020E-1
  5.26500E3  7.2192980732E-3  1.3451297224  1.0815891669E-4  1.0655396636E-4  1.2889440106E-1
  5.27000E3  7.2233070355E-3  1.3443658274  1.0841783724E-4  1.0680612300E-4  1.2906490256E-1
  5.27500E3  7.2273144190E-3  1.3436030900  1.0867713118E-4  1.0705863106E-4  1.2923540455E-1
  5.28000E3  7.2313202260E-3  1.3428415073  1.0893679872E-4  1.0731149069E-4  1.2940590687E-1
  5.28500E3  7.2353244584E-3  1.3420810766  1.0919684003E-4  1.0756470200E-4  1.2957640936E-1
  5.29000E3  7.2393271185E-3  1.3413217950  1.0945725530E-4  1.0781826514E-4  1.2974691187E-1
  5.29500E3  7.2433282084E-3  1.3405636596  1.0971804471E-4  1.0807218024E-4  1.2991741424E-1
  5.30000E3  7.2473277300E-3  1.3398066678  1.0997920845E-4  1.0832644744E-4  1.3008791632E-1
  5.30500E3  7.2513256856E-3  1.3390508165  1.1024074669E-4  1.0858106686E-4  1.3025841795E-1
  5.31000E3  7.2553220772E-3  1.3382961032  1.1050265963E-4  1.0883603864E-4  1.3042891899E-1
  5.31500E3  7.2593169069E-3  1.3375425249  1.1076494744E-4  1.0909136290E-4  1.3059941926E-1
  5.32000E3  7.2633101767E-3  1.3367900790  1.1102761031E-4  1.0934703980E-4  1.3076991863E-1
  5.32500E3  7.2673018889E-3  1.3360387626  1.1129064842E-4  1.0960306945E-4  1.3094041694E-1
  5.33000E3  7.2712944880E-3  1.3352886061  1.1155406195E-4  1.0985945254E-4  1.3111091404E-1
  5.33500E3  7.2753393013E-3  1.3345403028  1.1181785109E-4  1.1011620098E-4  1.3128140977E-1
  5.34000E3  7.2793825724E-3  1.3337931191  1.1208201602E-4  1.1037330267E-4  1.3145190399E-1
  5.34500E3  7.2834243034E-3  1.3330470525  1.1234655692E-4  1.1063075774E-4  1.3162239655E-1
  5.35000E3  7.2874644962E-3  1.3323021003  1.1261147398E-4  1.1088856632E-4  1.3179288728E-1
  5.35500E3  7.2915031529E-3  1.3315582596  1.1287676738E-4  1.1114672854E-4  1.3196337605E-1
  5.36000E3  7.2955402755E-3  1.3308155279  1.1314243729E-4  1.1140524453E-4  1.3213386270E-1
  5.36500E3  7.2995758660E-3  1.3300739024  1.1340848391E-4  1.1166411444E-4  1.3230434709E-1
  5.37000E3  7.3036099265E-3  1.3293333804  1.1367490741E-4  1.1192333837E-4  1.3247482906E-1
  5.37500E3  7.3076424588E-3  1.3285939593  1.1394170798E-4  1.1218291648E-4  1.3264530847E-1
  5.38000E3  7.3116734651E-3  1.3278556365  1.1420888580E-4  1.1244284889E-4  1.3281578517E-1
  5.38500E3  7.3157029473E-3  1.3271184093  1.1447644105E-4  1.1270313573E-4  1.3298625901E-1
  5.39000E3  7.3197309074E-3  1.3263822750  1.1474437392E-4  1.1296377713E-4  1.3315672985E-1
  5.39500E3  7.3237573474E-3  1.3256472310  1.1501268457E-4  1.1322477322E-4  1.3332719753E-1
  5.40000E3  7.3277822693E-3  1.3249132747  1.1528137321E-4  1.1348612414E-4  1.3349766192E-1
  5.40500E3  7.3318056750E-3  1.3241804034  1.1555044001E-4  1.1374783001E-4  1.3366812286E-1
  5.41000E3  7.3358275665E-3  1.3234486147  1.1581988514E-4  1.1400989097E-4  1.3383858021E-1
  5.41500E3  7.3398479459E-3  1.3227179058  1.1608970880E-4  1.1427230713E-4  1.3400903383E-1
  5.42000E3  7.3439166385E-3  1.3219889197  1.1635991116E-4  1.1453509077E-4  1.3417948357E-1
  5.42500E3  7.3479904479E-3  1.3212610927  1.1663049240E-4  1.1479823158E-4  1.3434992928E-1
  5.43000E3  7.3520627610E-3  1.3205343364  1.1690145272E-4  1.1506172810E-4  1.3452037083E-1
  5.43500E3  7.3561335799E-3  1.3198086481  1.1717279228E-4  1.1532558045E-4  1.3469080806E-1
  5.44000E3  7.3602029063E-3  1.3190840254  1.1744451126E-4  1.1558978876E-4  1.3486124085E-1
  5.44500E3  7.3642707423E-3  1.3183604657  1.1771660986E-4  1.1585435316E-4  1.3503166903E-1
  5.45000E3  7.3683370897E-3  1.3176379664  1.1798908825E-4  1.1611927379E-4  1.3520209248E-1
  5.45500E3  7.3724019505E-3  1.3169165251  1.1826194661E-4  1.1638455076E-4  1.3537251105E-1
  5.46000E3  7.3764653266E-3  1.3161961393  1.1853518513E-4  1.1665018422E-4  1.3554292459E-1
  5.46500E3  7.3805272198E-3  1.3154768063  1.1880880397E-4  1.1691617429E-4  1.3571333298E-1
  5.47000E3  7.3845876320E-3  1.3147585238  1.1908280333E-4  1.1718252109E-4  1.3588373606E-1
  5.47500E3  7.3886465652E-3  1.3140412892  1.1935718339E-4  1.1744922476E-4  1.3605413369E-1
  5.48000E3  7.3927040213E-3  1.3133251000  1.1963194432E-4  1.1771628543E-4  1.3622452575E-1
  5.48500E3  7.3967600020E-3  1.3126099538  1.1990708631E-4  1.1798370322E-4  1.3639491208E-1
  5.49000E3  7.4008145094E-3  1.3118958481  1.2018260953E-4  1.1825147827E-4  1.3656529255E-1
  5.49500E3  7.4048675453E-3  1.3111827805  1.2045851417E-4  1.1851961069E-4  1.3673566702E-1
  5.50000E3  7.4089191115E-3  1.3104707484  1.2073480041E-4  1.1878810063E-4  1.3690603536E-1
  5.50500E3  7.4129944750E-3  1.3097600624  1.2101146842E-4  1.1905695472E-4  1.3707639742E-1
  5.51000E3  7.4170997837E-3  1.3090507948  1.2128851839E-4  1.1932617476E-4  1.3724675306E-1
  5.51500E3  7.4212036392E-3  1.3083425541  1.2156595050E-4  1.1959575279E-4  1.3741710216E-1
  5.52000E3  7.4253060433E-3  1.3076353380  1.2184376493E-4  1.1986568894E-4  1.3758744457E-1
  5.52500E3  7.4294069979E-3  1.3069291438  1.2212196185E-4  1.2013598335E-4  1.3775778016E-1
  5.53000E3  7.4335065047E-3  1.3062239694  1.2240054144E-4  1.2040663614E-4  1.3792810879E-1
  5.53500E3  7.4376045657E-3  1.3055198122  1.2267950390E-4  1.2067764743E-4  1.3809843033E-1
  5.54000E3  7.4417011825E-3  1.3048166699  1.2295884939E-4  1.2094901736E-4  1.3826874464E-1
  5.54500E3  7.4457963570E-3  1.3041145401  1.2323857809E-4  1.2122074605E-4  1.3843905159E-1
  5.55000E3  7.4498900911E-3  1.3034134205  1.2351869019E-4  1.2149283363E-4  1.3860935104E-1
  5.55500E3  7.4539823865E-3  1.3027133086  1.2379918587E-4  1.2176528022E-4  1.3877964286E-1
  5.56000E3  7.4580732450E-3  1.3020142022  1.2408006529E-4  1.2203808596E-4  1.3894992691E-1
  5.56500E3  7.4621626685E-3  1.3013160989  1.2436132865E-4  1.2231125096E-4  1.3912020307E-1
  5.57000E3  7.4662506586E-3  1.3006189963  1.2464297613E-4  1.2258477536E-4  1.3929047120E-1
  5.57500E3  7.4703372173E-3  1.2999228921  1.2492500789E-4  1.2285865929E-4  1.3946073117E-1
  5.58000E3  7.4744223462E-3  1.2992277840  1.2520742412E-4  1.2313290286E-4  1.3963098284E-1
  5.58500E3  7.4785060473E-3  1.2985336697  1.2549022500E-4  1.2340750621E-4  1.3980122610E-1
  5.59000E3  7.4825883221E-3  1.2978405469  1.2577341071E-4  1.2368246945E-4  1.3997146079E-1
  5.59500E3  7.4867106091E-3  1.2971489029  1.2605698142E-4  1.2395780409E-4  1.4014168680E-1
  5.60000E3  7.4908469509E-3  1.2964584275  1.2634093732E-4  1.2423350322E-4  1.4031190399E-1
  5.60500E3  7.4949818835E-3  1.2957689354  1.2662527859E-4  1.2450956273E-4  1.4048211224E-1
  5.61000E3  7.4991154085E-3  1.2950804242  1.2691000539E-4  1.2478598275E-4  1.4065231141E-1
  5.61500E3  7.5032475277E-3  1.2943928918  1.2719511792E-4  1.2506276341E-4  1.4082250137E-1
  5.62000E3  7.5073782428E-3  1.2937063359  1.2748061634E-4  1.2533990483E-4  1.4099268200E-1
  5.62500E3  7.5115075556E-3  1.2930207542  1.2776650084E-4  1.2561740714E-4  1.4116285317E-1
  5.63000E3  7.5156354677E-3  1.2923361444  1.2805277160E-4  1.2589527046E-4  1.4133301475E-1
  5.63500E3  7.5197619809E-3  1.2916525044  1.2833942879E-4  1.2617349493E-4  1.4150316662E-1
  5.64000E3  7.5238870969E-3  1.2909698318  1.2862647259E-4  1.2645208065E-4  1.4167330864E-1
  5.64500E3  7.5280108175E-3  1.2902881245  1.2891390318E-4  1.2673102777E-4  1.4184344068E-1
  5.65000E3  7.5321331442E-3  1.2896073803  1.2920172074E-4  1.2701033640E-4  1.4201356263E-1
  5.65500E3  7.5362540789E-3  1.2889275969  1.2948992545E-4  1.2729000666E-4  1.4218367436E-1
  5.66000E3  7.5403736231E-3  1.2882487722  1.2977851747E-4  1.2757003869E-4  1.4235377573E-1
  5.66500E3  7.5444917787E-3  1.2875709039  1.3006749700E-4  1.2785043261E-4  1.4252386664E-1
  5.67000E3  7.5486085473E-3  1.2868939898  1.3035686421E-4  1.2813118854E-4  1.4269394694E-1
  5.67500E3  7.5527239306E-3  1.2862180278  1.3064661927E-4  1.2841230660E-4  1.4286401652E-1
  5.68000E3  7.5568379303E-3  1.2855430157  1.3093676237E-4  1.2869378692E-4  1.4303407524E-1
  5.68500E3  7.5609919918E-3  1.2848694189  1.3122729367E-4  1.2897564169E-4  1.4320412300E-1
  5.69000E3  7.5651603806E-3  1.2841969437  1.3151821337E-4  1.2925786363E-4  1.4337415966E-1
  5.69500E3  7.5693274031E-3  1.2835254106  1.3180952163E-4  1.2954044831E-4  1.4354418511E-1
  5.70000E3  7.5734930610E-3  1.2828548176  1.3210121863E-4  1.2982339586E-4  1.4371419921E-1
  5.70500E3  7.5776573559E-3  1.2821851624  1.3239330455E-4  1.3010670640E-4  1.4388420185E-1
  5.71000E3  7.5818202894E-3  1.2815164430  1.3268577957E-4  1.3039038005E-4  1.4405419290E-1
  5.71500E3  7.5859818632E-3  1.2808486572  1.3297864386E-4  1.3067441694E-4  1.4422417225E-1
  5.72000E3  7.5901420789E-3  1.2801818029  1.3327189760E-4  1.3095881719E-4  1.4439413977E-1
  5.72500E3  7.5943009382E-3  1.2795158780  1.3356554097E-4  1.3124358093E-4  1.4456409534E-1
  5.73000E3  7.5984584426E-3  1.2788508804  1.3385957414E-4  1.3152870827E-4  1.4473403884E-1
  5.73500E3  7.6026145939E-3  1.2781868080  1.3415399729E-4  1.3181419934E-4  1.4490397015E-1
  5.74000E3  7.6067693935E-3  1.2775236587  1.3444881060E-4  1.3210005427E-4  1.4507388916E-1
  5.74500E3  7.6109228432E-3  1.2768614304  1.3474401425E-4  1.3238627316E-4  1.4524379573E-1
  5.75000E3  7.6150749445E-3  1.2762001210  1.3503960840E-4  1.3267285616E-4  1.4541368976E-1
  5.75500E3  7.6192256991E-3  1.2755397285  1.3533559324E-4  1.3295980337E-4  1.4558357112E-1
  5.76000E3  7.6233751085E-3  1.2748802507  1.3563196894E-4  1.3324711493E-4  1.4575343969E-1
  5.76500E3  7.6275231744E-3  1.2742216857  1.3592873568E-4  1.3353479095E-4  1.4592329537E-1
  5.77000E3  7.6316698983E-3  1.2735640314  1.3622589363E-4  1.3382283155E-4  1.4609313802E-1
  5.77500E3  7.6358401023E-3  1.2729075530  1.3652344298E-4  1.3411124452E-4  1.4626296754E-1
  5.78000E3  7.6400415349E-3  1.2722523311  1.3682138389E-4  1.3440003245E-4  1.4643278380E-1
  5.78500E3  7.6442416433E-3  1.2715980124  1.3711971655E-4  1.3468918545E-4  1.4660258669E-1
  5.79000E3  7.6484404291E-3  1.2709445952  1.3741844112E-4  1.3497870364E-4  1.4677237610E-1
  5.79500E3  7.6526378939E-3  1.2702920773  1.3771755779E-4  1.3526858714E-4  1.4694215190E-1
  5.80000E3  7.6568340392E-3  1.2696404568  1.3801706673E-4  1.3555883608E-4  1.4711191392E-1
  5.80500E3  7.6610288666E-3  1.2689897315  1.3831696811E-4  1.3584945057E-4  1.4728166204E-1
  5.81000E3  7.6652223777E-3  1.2683398996  1.3861726211E-4  1.3614043074E-4  1.4745139612E-1
  5.81500E3  7.6694145739E-3  1.2676909591  1.3891794892E-4  1.3643177670E-4  1.4762111605E-1
  5.82000E3  7.6736054568E-3  1.2670429079  1.3921902869E-4  1.3672348858E-4  1.4779082169E-1
  5.82500E3  7.6777950279E-3  1.2663957440  1.3952050161E-4  1.3701556650E-4  1.4796051294E-1
  5.83000E3  7.6819832889E-3  1.2657494656  1.3982236785E-4  1.3730801058E-4  1.4813018966E-1
  5.83500E3  7.6861702411E-3  1.2651040706  1.4012462759E-4  1.3760082094E-4  1.4829985174E-1
  5.84000E3  7.6903558863E-3  1.2644595570  1.4042728100E-4  1.3789399770E-4  1.4846949905E-1
  5.84500E3  7.6945402257E-3  1.2638159229  1.4073032826E-4  1.3818754098E-4  1.4863913147E-1
  5.85000E3  7.6987232611E-3  1.2631731664  1.4103376955E-4  1.3848145090E-4  1.4880874888E-1
  5.85500E3  7.7029049940E-3  1.2625312855  1.4133760503E-4  1.3877572759E-4  1.4897835117E-1
  5.86000E3  7.7070854257E-3  1.2618902783  1.4164183488E-4  1.3907037115E-4  1.4914793820E-1
  5.86500E3  7.7112645579E-3  1.2612501427  1.4194645928E-4  1.3936538172E-4  1.4931750987E-1
  5.87000E3  7.7154911053E-3  1.2606113773  1.4225147840E-4  1.3966077537E-4  1.4948706606E-1
  5.87500E3  7.7197252794E-3  1.2599735702  1.4255689242E-4  1.3995653930E-4  1.4965660663E-1
  5.88000E3  7.7239581723E-3  1.2593366280  1.4286270151E-4  1.4025267071E-4  1.4982613148E-1
  5.88500E3  7.7281897853E-3  1.2587005487  1.4316890585E-4  1.4054916973E-4  1.4999564049E-1
  5.89000E3  7.7324201199E-3  1.2580653305  1.4347550560E-4  1.4084603647E-4  1.5016513354E-1
  5.89500E3  7.7366491777E-3  1.2574309715  1.4378250095E-4  1.4114327105E-4  1.5033461051E-1
  5.90000E3  7.7408769600E-3  1.2567974698  1.4408989206E-4  1.4144087359E-4  1.5050407129E-1
  5.90500E3  7.7451034683E-3  1.2561648234  1.4439767912E-4  1.4173884421E-4  1.5067351575E-1
  5.91000E3  7.7493287042E-3  1.2555330306  1.4470586230E-4  1.4203718303E-4  1.5084294379E-1
  5.91500E3  7.7535526690E-3  1.2549020894  1.4501444177E-4  1.4233589017E-4  1.5101235528E-1
  5.92000E3  7.7577753642E-3  1.2542719980  1.4532341770E-4  1.4263496574E-4  1.5118175011E-1
  5.92500E3  7.7619967913E-3  1.2536427545  1.4563279027E-4  1.4293440988E-4  1.5135112816E-1
  5.93000E3  7.7662169517E-3  1.2530143571  1.4594255965E-4  1.4323422268E-4  1.5152048933E-1
  5.93500E3  7.7704358469E-3  1.2523868039  1.4625272601E-4  1.4353440428E-4  1.5168983349E-1
  5.94000E3  7.7746534783E-3  1.2517600930  1.4656328954E-4  1.4383495479E-4  1.5185916052E-1
  5.94500E3  7.7788698473E-3  1.2511342227  1.4687425040E-4  1.4413587433E-4  1.5202847033E-1
  5.95000E3  7.7830849555E-3  1.2505091911  1.4718560877E-4  1.4443716301E-4  1.5219776279E-1
  5.95500E3  7.7872988041E-3  1.2498849964  1.4749736482E-4  1.4473882097E-4  1.5236703778E-1
  5.96000E3  7.7915113947E-3  1.2492616367  1.4780951872E-4  1.4504084830E-4  1.5253629521E-1
  5.96500E3  7.7957782153E-3  1.2486396548  1.4812207064E-4  1.4534326443E-4  1.5270553494E-1
  5.97000E3  7.8000461717E-3  1.2480185266  1.4843502077E-4  1.4564605113E-4  1.5287475688E-1
  5.97500E3  7.8043128887E-3  1.2473982271  1.4874836927E-4  1.4594920769E-4  1.5304396091E-1
  5.98000E3  7.8085783678E-3  1.2467787543  1.4906211632E-4  1.4625273424E-4  1.5321314691E-1
  5.98500E3  7.8128426102E-3  1.2461601065  1.4937626209E-4  1.4655663088E-4  1.5338231478E-1
  5.99000E3  7.8171056175E-3  1.2455422819  1.4969080675E-4  1.4686089774E-4  1.5355146440E-1
  5.99500E3  7.8213673911E-3  1.2449252787  1.5000575047E-4  1.4716553494E-4  1.5372059567E-1
  6.00000E3  7.8256279322E-3  1.2443090951  1.5032109344E-4  1.4747054259E-4  1.5388970847E-1
  6.00500E3  7.8298872422E-3  1.2436937295  1.5064095236E-4  1.4777988248E-4  1.5405880269E-1
  6.01000E3  7.8341453227E-3  1.2430791799  1.5096122483E-4  1.4808960601E-4  1.5422787823E-1
  6.01500E3  7.8384021748E-3  1.2424654447  1.5128191103E-4  1.4839971332E-4  1.5439693497E-1
  6.02000E3  7.8426578001E-3  1.2418525221  1.5160301115E-4  1.4871020453E-4  1.5456597281E-1
  6.02500E3  7.8469121999E-3  1.2412404103  1.5192452539E-4  1.4902107977E-4  1.5473499163E-1
  6.03000E3  7.8511653755E-3  1.2406291077  1.5224645392E-4  1.4933233919E-4  1.5490399134E-1
  6.03500E3  7.8554173283E-3  1.2400186124  1.5256879695E-4  1.4964398289E-4  1.5507297181E-1
  6.04000E3  7.8596680598E-3  1.2394089227  1.5289155465E-4  1.4995601103E-4  1.5524193294E-1
  6.04500E3  7.8639175711E-3  1.2388000370  1.5321472723E-4  1.5026842371E-4  1.5541087463E-1
  6.05000E3  7.8681658638E-3  1.2381919534  1.5353831486E-4  1.5058122109E-4  1.5557979677E-1
  6.05500E3  7.8724129391E-3  1.2375846702  1.5386231774E-4  1.5089440327E-4  1.5574869925E-1
  6.06000E3  7.8767033575E-3  1.2369786196  1.5418673607E-4  1.5120798683E-4  1.5591758196E-1
  6.06500E3  7.8810060026E-3  1.2363734959  1.5451157001E-4  1.5152196053E-4  1.5608644480E-1
  6.07000E3  7.8853074495E-3  1.2357691664  1.5483681978E-4  1.5183631957E-4  1.5625528766E-1
  6.07500E3  7.8896076994E-3  1.2351656296  1.5516248555E-4  1.5215106408E-4  1.5642411044E-1
  6.08000E3  7.8939067538E-3  1.2345628837  1.5548856752E-4  1.5246619419E-4  1.5659291304E-1
  6.08500E3  7.8982046138E-3  1.2339609271  1.5581506586E-4  1.5278171002E-4  1.5676169534E-1
  6.09000E3  7.9025012810E-3  1.2333597580  1.5614198079E-4  1.5309761171E-4  1.5693045724E-1
  6.09500E3  7.9067967564E-3  1.2327593749  1.5646931247E-4  1.5341389938E-4  1.5709919864E-1
  6.10000E3  7.9110910415E-3  1.2321597759  1.5679706110E-4  1.5373057317E-4  1.5726791943E-1
  6.10500E3  7.9153841375E-3  1.2315609595  1.5712522687E-4  1.5404763320E-4  1.5743661951E-1
  6.11000E3  7.9196760458E-3  1.2309629240  1.5745380997E-4  1.5436507960E-4  1.5760529878E-1
  6.11500E3  7.9239667677E-3  1.2303656677  1.5778281059E-4  1.5468291250E-4  1.5777395714E-1
  6.12000E3  7.9282563044E-3  1.2297691890  1.5811222891E-4  1.5500113202E-4  1.5794259448E-1
  6.12500E3  7.9325446572E-3  1.2291734862  1.5844206512E-4  1.5531973830E-4  1.5811121069E-1
  6.13000E3  7.9368318275E-3  1.2285785577  1.5877231941E-4  1.5563873147E-4  1.5827980569E-1
  6.13500E3  7.9411178166E-3  1.2279844019  1.5910299198E-4  1.5595811164E-4  1.5844837936E-1
  6.14000E3  7.9454026256E-3  1.2273910172  1.5943408300E-4  1.5627787895E-4  1.5861693160E-1
  6.14500E3  7.9496862560E-3  1.2267984018  1.5976559266E-4  1.5659803353E-4  1.5878546232E-1
  6.15000E3  7.9539687089E-3  1.2262065542  1.6009752116E-4  1.5691857551E-4  1.5895397141E-1
  6.15500E3  7.9582655926E-3  1.2256156278  1.6042986869E-4  1.5723951109E-4  1.5912245877E-1
  6.16000E3  7.9626037239E-3  1.2250258866  1.6076263542E-4  1.5756085099E-4  1.5929092430E-1
  6.16500E3  7.9669406973E-3  1.2244369073  1.6109582155E-4  1.5788257879E-4  1.5945936790E-1
  6.17000E3  7.9712765141E-3  1.2238486883  1.6142942726E-4  1.5820469465E-4  1.5962778948E-1
  6.17500E3  7.9756111755E-3  1.2232612280  1.6176345275E-4  1.5852719867E-4  1.5979618893E-1
  6.18000E3  7.9799446827E-3  1.2226745249  1.6209789820E-4  1.5885009100E-4  1.5996456616E-1
  6.18500E3  7.9842770370E-3  1.2220885773  1.6243276380E-4  1.5917337175E-4  1.6013292106E-1
  6.19000E3  7.9886082397E-3  1.2215033837  1.6276804973E-4  1.5949704105E-4  1.6030125353E-1
  6.19500E3  7.9929382918E-3  1.2209189424  1.6310375619E-4  1.5982109903E-4  1.6046956349E-1
  6.20000E3  7.9972671948E-3  1.2203352520  1.6343988336E-4  1.6014554582E-4  1.6063785083E-1
  6.20500E3  8.0015949497E-3  1.2197523108  1.6377643142E-4  1.6047038155E-4  1.6080611545E-1
  6.21000E3  8.0059215579E-3  1.2191701173  1.6411340057E-4  1.6079560633E-4  1.6097435726E-1
  6.21500E3  8.0102470206E-3  1.2185886699  1.6445079100E-4  1.6112122030E-4  1.6114257615E-1
  6.22000E3  8.0145713390E-3  1.2180079670  1.6478860288E-4  1.6144722357E-4  1.6131077205E-1
  6.22500E3  8.0188945143E-3  1.2174280072  1.6512683641E-4  1.6177361629E-4  1.6147894484E-1
  6.23000E3  8.0232165477E-3  1.2168487888  1.6546549177E-4  1.6210039857E-4  1.6164709443E-1
  6.23500E3  8.0275374405E-3  1.2162703104  1.6580456916E-4  1.6242757053E-4  1.6181522073E-1
  6.24000E3  8.0318571939E-3  1.2156925703  1.6614406875E-4  1.6275513231E-4  1.6198332363E-1
  6.24500E3  8.0361758090E-3  1.2151155671  1.6648399074E-4  1.6308308403E-4  1.6215140306E-1
  6.25000E3  8.0404932872E-3  1.2145392991  1.6682433530E-4  1.6341142582E-4  1.6231945890E-1
  6.25500E3  8.0448360842E-3  1.2139640326  1.6716510264E-4  1.6374016876E-4  1.6248749107E-1
  6.26000E3  8.0492093645E-3  1.2133898174  1.6750629293E-4  1.6406931522E-4  1.6265549948E-1
  6.26500E3  8.0535815277E-3  1.2128163318  1.6784790636E-4  1.6439885227E-4  1.6282348402E-1
  6.27000E3  8.0579525749E-3  1.2122435745  1.6818994311E-4  1.6472878003E-4  1.6299144461E-1
  6.27500E3  8.0623225074E-3  1.2116715440  1.6853240338E-4  1.6505909863E-4  1.6315938115E-1
  6.28000E3  8.0666913263E-3  1.2111002386  1.6887528735E-4  1.6538980820E-4  1.6332729355E-1
  6.28500E3  8.0710590328E-3  1.2105296570  1.6921859521E-4  1.6572090885E-4  1.6349518171E-1
  6.29000E3  8.0754256280E-3  1.2099597976  1.6956232714E-4  1.6605240072E-4  1.6366304555E-1
  6.29500E3  8.0797911131E-3  1.2093906590  1.6990648332E-4  1.6638428392E-4  1.6383088497E-1
  6.30000E3  8.0841554893E-3  1.2088222396  1.7025106395E-4  1.6671655859E-4  1.6399869988E-1
  6.30500E3  8.0885187578E-3  1.2082545381  1.7059606921E-4  1.6704922484E-4  1.6416649019E-1
  6.31000E3  8.0928809196E-3  1.2076875528  1.7094149929E-4  1.6738228280E-4  1.6433425581E-1
  6.31500E3  8.0972419760E-3  1.2071212824  1.7128735437E-4  1.6771573260E-4  1.6450199665E-1
  6.32000E3  8.1016019281E-3  1.2065557253  1.7163363464E-4  1.6804957436E-4  1.6466971261E-1
  6.32500E3  8.1059607771E-3  1.2059908802  1.7198034028E-4  1.6838380820E-4  1.6483740360E-1
  6.33000E3  8.1103185240E-3  1.2054267456  1.7232747148E-4  1.6871843424E-4  1.6500506954E-1
  6.33500E3  8.1146751702E-3  1.2048633199  1.7267502843E-4  1.6905345262E-4  1.6517271034E-1
  6.34000E3  8.1190307166E-3  1.2043006018  1.7302301130E-4  1.6938886345E-4  1.6534032591E-1
  6.34500E3  8.1233851645E-3  1.2037385898  1.7337142029E-4  1.6972466685E-4  1.6550791615E-1
  6.35000E3  8.1277385150E-3  1.2031772825  1.7372025559E-4  1.7006086296E-4  1.6567548098E-1
  6.35500E3  8.1321095554E-3  1.2026168716  1.7406951737E-4  1.7039746013E-4  1.6584302032E-1
  6.36000E3  8.1365188314E-3  1.2020575662  1.7441920582E-4  1.7073446763E-4  1.6601053407E-1
  6.36500E3  8.1409270303E-3  1.2014989601  1.7476932112E-4  1.7107186835E-4  1.6617802214E-1
  6.37000E3  8.1453341531E-3  1.2009410519  1.7511986347E-4  1.7140966242E-4  1.6634548444E-1
  6.37500E3  8.1497402010E-3  1.2003838402  1.7547083305E-4  1.7174784995E-4  1.6651292088E-1
  6.38000E3  8.1541451751E-3  1.1998273237  1.7582223004E-4  1.7208643108E-4  1.6668033136E-1
  6.38500E3  8.1585490765E-3  1.1992715007  1.7617405463E-4  1.7242540593E-4  1.6684771579E-1
  6.39000E3  8.1629519063E-3  1.1987163701  1.7652630700E-4  1.7276477461E-4  1.6701507409E-1
  6.39500E3  8.1673536655E-3  1.1981619303  1.7687898733E-4  1.7310453725E-4  1.6718240615E-1
  6.40000E3  8.1717543554E-3  1.1976081800  1.7723209582E-4  1.7344469397E-4  1.6734971190E-1
  6.40500E3  8.1761539769E-3  1.1970551178  1.7758563264E-4  1.7378524489E-4  1.6751699124E-1
  6.41000E3  8.1805525312E-3  1.1965027423  1.7793959799E-4  1.7412619015E-4  1.6768424408E-1
  6.41500E3  8.1849500194E-3  1.1959510520  1.7829399203E-4  1.7446752985E-4  1.6785147033E-1
  6.42000E3  8.1893464425E-3  1.1954000457  1.7864881497E-4  1.7480926412E-4  1.6801866990E-1
  6.42500E3  8.1937418017E-3  1.1948497219  1.7900406699E-4  1.7515139309E-4  1.6818584271E-1
  6.43000E3  8.1981360980E-3  1.1943000793  1.7935974826E-4  1.7549391687E-4  1.6835298866E-1
  6.43500E3  8.2025293325E-3  1.1937511164  1.7971585897E-4  1.7583683558E-4  1.6852010766E-1
  6.44000E3  8.2069215063E-3  1.1932028320  1.8007239931E-4  1.7618014935E-4  1.6868719963E-1
  6.44500E3  8.2113126205E-3  1.1926552246  1.8042936947E-4  1.7652385830E-4  1.6885426449E-1
  6.45000E3  8.2157026761E-3  1.1921082929  1.8078676961E-4  1.7686796255E-4  1.6902130213E-1
  6.45500E3  8.2200916743E-3  1.1915620355  1.8114459994E-4  1.7721246221E-4  1.6918831248E-1
  6.46000E3  8.2245300361E-3  1.1910169769  1.8150286063E-4  1.7755738093E-4  1.6935529544E-1
  6.46500E3  8.2289751018E-3  1.1904726698  1.8186155187E-4  1.7790269908E-4  1.6952225094E-1
  6.47000E3  8.2334191307E-3  1.1899290319  1.8222067384E-4  1.7824841316E-4  1.6968917888E-1
  6.47500E3  8.2378621238E-3  1.1893860619  1.8258022672E-4  1.7859452331E-4  1.6985607917E-1
  6.48000E3  8.2423040820E-3  1.1888437585  1.8294021070E-4  1.7894102965E-4  1.7002295174E-1
  6.48500E3  8.2467450066E-3  1.1883021204  1.8330062597E-4  1.7928793229E-4  1.7018979649E-1
  6.49000E3  8.2511848985E-3  1.1877611462  1.8366147270E-4  1.7963523136E-4  1.7035661334E-1
  6.49500E3  8.2556237587E-3  1.1872208346  1.8402275108E-4  1.7998292698E-4  1.7052340221E-1
  6.50000E3  8.2600615883E-3  1.1866811844  1.8438446129E-4  1.8033101926E-4  1.7069016301E-1
  6.50500E3  8.2644983883E-3  1.1861421940  1.8474660352E-4  1.8067950833E-4  1.7085689565E-1
  6.51000E3  8.2689341598E-3  1.1856038624  1.8510917794E-4  1.8102839431E-4  1.7102360005E-1
  6.51500E3  8.2733689037E-3  1.1850661881  1.8547218475E-4  1.8137767732E-4  1.7119027613E-1
  6.52000E3  8.2778026211E-3  1.1845291698  1.8583562413E-4  1.8172735748E-4  1.7135692381E-1
  6.52500E3  8.2822353130E-3  1.1839928063  1.8619949625E-4  1.8207743490E-4  1.7152354299E-1
  6.53000E3  8.2866669805E-3  1.1834570962  1.8656380131E-4  1.8242790971E-4  1.7169013360E-1
  6.53500E3  8.2910976246E-3  1.1829220382  1.8692853948E-4  1.8277878203E-4  1.7185669555E-1
  6.54000E3  8.2955272462E-3  1.1823876311  1.8729371095E-4  1.8313005197E-4  1.7202322875E-1
  6.54500E3  8.2999558464E-3  1.1818538736  1.8765931590E-4  1.8348171966E-4  1.7218973314E-1
  6.55000E3  8.3043834263E-3  1.1813207644  1.8802535452E-4  1.8383378521E-4  1.7235620862E-1
  6.55500E3  8.3088099867E-3  1.1807883021  1.8839182698E-4  1.8418624875E-4  1.7252265512E-1
  6.56000E3  8.3132402510E-3  1.1802565355  1.8875873347E-4  1.8453911272E-4  1.7268907254E-1
  6.56500E3  8.3177230007E-3  1.1797259782  1.8912607417E-4  1.8489240137E-4  1.7285546082E-1
