#[MATERIAL DEFINITION FOR MC-GPU: interaction mean free path and sampling data from PENELOPE 2006]
#[MATERIAL NAME]
# WATER, LIQUID  (278)                                          
#[NOMINAL DENSITY (g/cm^3)]
#   1.00000000
#[NUMBER OF DATA VALUES]
#  23002
#[MEAN FREE PATHS (cm)]
#[Energy (eV)     | Rayleigh        | Compton         | Photoelectric   | TOTAL (+pair prod) (cm) | Rayleigh: max cumul prob F^2]
  5.00000E+03  1.7992702856E+00  8.3554546461E+00  2.3888074252E-02  2.3508748507E-02  3.5128247063E-01
  5.00500E+03  1.8013278450E+00  8.3502550737E+00  2.3960541002E-02  2.3579240226E-02  3.5154097082E-01
  5.01000E+03  1.8033856994E+00  8.3450639239E+00  2.4033154898E-02  2.3649870654E-02  3.5179914498E-01
  5.01500E+03  1.8054438485E+00  8.3398811747E+00  2.4105916092E-02  2.3720639914E-02  3.5205699381E-01
  5.02000E+03  1.8075022919E+00  8.3347068042E+00  2.4178824737E-02  2.3791548128E-02  3.5231451809E-01
  5.02500E+03  1.8095610296E+00  8.3295407904E+00  2.4251880982E-02  2.3862595420E-02  3.5257171859E-01
  5.03000E+03  1.8116200611E+00  8.3243831116E+00  2.4325084981E-02  2.3933781913E-02  3.5282859608E-01
  5.03500E+03  1.8136793864E+00  8.3192337461E+00  2.4398436884E-02  2.4005107729E-02  3.5308515131E-01
  5.04000E+03  1.8157390050E+00  8.3140926722E+00  2.4471936843E-02  2.4076572992E-02  3.5334138504E-01
  5.04500E+03  1.8177989168E+00  8.3089598683E+00  2.4545585009E-02  2.4148177823E-02  3.5359729804E-01
  5.05000E+03  1.8198591216E+00  8.3038353131E+00  2.4619381534E-02  2.4219922345E-02  3.5385289105E-01
  5.05500E+03  1.8219551960E+00  8.2989242386E+00  2.4693326570E-02  2.4291814765E-02  3.5410816483E-01
  5.06000E+03  1.8240560048E+00  8.2940462370E+00  2.4767420268E-02  2.4363848199E-02  3.5436312011E-01
  5.06500E+03  1.8261571575E+00  8.2891759161E+00  2.4841662779E-02  2.4436021777E-02  3.5461775765E-01
  5.07000E+03  1.8282586538E+00  8.2843132564E+00  2.4916054255E-02  2.4508335622E-02  3.5487207819E-01
  5.07500E+03  1.8303604934E+00  8.2794582381E+00  2.4990594848E-02  2.4580789857E-02  3.5512608247E-01
  5.08000E+03  1.8324626760E+00  8.2746108419E+00  2.5065284709E-02  2.4653384604E-02  3.5537977122E-01
  5.08500E+03  1.8345652014E+00  8.2697710482E+00  2.5140123990E-02  2.4726119987E-02  3.5563314517E-01
  5.09000E+03  1.8366680692E+00  8.2649388377E+00  2.5215112842E-02  2.4798996127E-02  3.5588620507E-01
  5.09500E+03  1.8387712792E+00  8.2601141910E+00  2.5290251416E-02  2.4872013146E-02  3.5613895163E-01
  5.10000E+03  1.8408748312E+00  8.2552970889E+00  2.5365539865E-02  2.4945171169E-02  3.5639138558E-01
  5.10500E+03  1.8429787247E+00  8.2504875123E+00  2.5440978340E-02  2.5018470315E-02  3.5664350765E-01
  5.11000E+03  1.8450829597E+00  8.2456854420E+00  2.5516566993E-02  2.5091910709E-02  3.5689531854E-01
  5.11500E+03  1.8471875356E+00  8.2408908589E+00  2.5592305975E-02  2.5165492473E-02  3.5714681900E-01
  5.12000E+03  1.8492924524E+00  8.2361037442E+00  2.5668195437E-02  2.5239215727E-02  3.5739800971E-01
  5.12500E+03  1.8513977097E+00  8.2313240788E+00  2.5744235532E-02  2.5313080595E-02  3.5764889141E-01
  5.13000E+03  1.8535033072E+00  8.2265518440E+00  2.5820426410E-02  2.5387087198E-02  3.5789946479E-01
  5.13500E+03  1.8556092447E+00  8.2217870210E+00  2.5896768224E-02  2.5461235659E-02  3.5814973057E-01
  5.14000E+03  1.8577155219E+00  8.2170295910E+00  2.5973261125E-02  2.5535526099E-02  3.5839968945E-01
  5.14500E+03  1.8598221385E+00  8.2122795354E+00  2.6049905264E-02  2.5609958640E-02  3.5864934213E-01
  5.15000E+03  1.8619290942E+00  8.2075368357E+00  2.6126700794E-02  2.5684533404E-02  3.5889868931E-01
  5.15500E+03  1.8640363888E+00  8.2028014733E+00  2.6203647866E-02  2.5759250512E-02  3.5914773169E-01
  5.16000E+03  1.8661440219E+00  8.1980734297E+00  2.6280746631E-02  2.5834110086E-02  3.5939646997E-01
  5.16500E+03  1.8682519934E+00  8.1933526866E+00  2.6357997242E-02  2.5909112248E-02  3.5964490482E-01
  5.17000E+03  1.8703603029E+00  8.1886392257E+00  2.6435399849E-02  2.5984257119E-02  3.5989303695E-01
  5.17500E+03  1.8724689502E+00  8.1839330287E+00  2.6512954604E-02  2.6059544821E-02  3.6014086703E-01
  5.18000E+03  1.8745779349E+00  8.1792340773E+00  2.6590661660E-02  2.6134975474E-02  3.6038839576E-01
  5.18500E+03  1.8766872569E+00  8.1745423536E+00  2.6668521167E-02  2.6210549200E-02  3.6063562382E-01
  5.19000E+03  1.8787969158E+00  8.1698578393E+00  2.6746533277E-02  2.6286266120E-02  3.6088255188E-01
  5.19500E+03  1.8809069114E+00  8.1651805165E+00  2.6824698143E-02  2.6362126355E-02  3.6112918062E-01
  5.20000E+03  1.8830172435E+00  8.1605103673E+00  2.6903015915E-02  2.6438130027E-02  3.6137551072E-01
  5.20500E+03  1.8851279116E+00  8.1558473737E+00  2.6981486745E-02  2.6514277257E-02  3.6162154285E-01
  5.21000E+03  1.8872389156E+00  8.1511915179E+00  2.7060110786E-02  2.6590568164E-02  3.6186727767E-01
  5.21500E+03  1.8893502553E+00  8.1465427822E+00  2.7138888187E-02  2.6667002871E-02  3.6211271586E-01
  5.22000E+03  1.8914619302E+00  8.1419011489E+00  2.7217819103E-02  2.6743581497E-02  3.6235785808E-01
  5.22500E+03  1.8935739402E+00  8.1372666003E+00  2.7296903683E-02  2.6820304164E-02  3.6260270499E-01
  5.23000E+03  1.8956862850E+00  8.1326391189E+00  2.7376142079E-02  2.6897170992E-02  3.6284725726E-01
  5.23500E+03  1.8977989644E+00  8.1280186871E+00  2.7455534445E-02  2.6974182102E-02  3.6309151553E-01
  5.24000E+03  1.8999119780E+00  8.1234052875E+00  2.7535080930E-02  2.7051337614E-02  3.6333548048E-01
  5.24500E+03  1.9020253256E+00  8.1187989027E+00  2.7614781686E-02  2.7128637649E-02  3.6357915274E-01
  5.25000E+03  1.9041390069E+00  8.1141995154E+00  2.7694636867E-02  2.7206082326E-02  3.6382253297E-01
  5.25500E+03  1.9062754235E+00  8.1097327876E+00  2.7774646622E-02  2.7283677779E-02  3.6406562182E-01
  5.26000E+03  1.9084271659E+00  8.1053565740E+00  2.7854811104E-02  2.7361422200E-02  3.6430841997E-01
  5.26500E+03  1.9105792893E+00  8.1009868765E+00  2.7935130465E-02  2.7439311716E-02  3.6455092818E-01
  5.27000E+03  1.9127317932E+00  8.0966236793E+00  2.8015604855E-02  2.7517346446E-02  3.6479314715E-01
  5.27500E+03  1.9148846776E+00  8.0922669663E+00  2.8096234428E-02  2.7595526512E-02  3.6503507761E-01
  5.28000E+03  1.9170379420E+00  8.0879167220E+00  2.8177019335E-02  2.7673852034E-02  3.6527672028E-01
  5.28500E+03  1.9191915861E+00  8.0835729306E+00  2.8257959727E-02  2.7752323132E-02  3.6551807588E-01
  5.29000E+03  1.9213456098E+00  8.0792355764E+00  2.8339055756E-02  2.7830939926E-02  3.6575914511E-01
  5.29500E+03  1.9235000126E+00  8.0749046438E+00  2.8420307574E-02  2.7909702536E-02  3.6599992870E-01
  5.30000E+03  1.9256547943E+00  8.0705801173E+00  2.8501715332E-02  2.7988611084E-02  3.6624042734E-01
  5.30500E+03  1.9278099547E+00  8.0662619813E+00  2.8583279184E-02  2.8067665688E-02  3.6648064174E-01
  5.31000E+03  1.9299654933E+00  8.0619502204E+00  2.8664999279E-02  2.8146866469E-02  3.6672057261E-01
  5.31500E+03  1.9321214100E+00  8.0576448193E+00  2.8746875770E-02  2.8226213547E-02  3.6696022065E-01
  5.32000E+03  1.9342777044E+00  8.0533457624E+00  2.8828908808E-02  2.8305707042E-02  3.6719958654E-01
  5.32500E+03  1.9364343762E+00  8.0490530346E+00  2.8911098546E-02  2.8385347073E-02  3.6743867098E-01
  5.33000E+03  1.9385914252E+00  8.0447666206E+00  2.8993445136E-02  2.8465133760E-02  3.6767747468E-01
  5.33500E+03  1.9407488511E+00  8.0404865052E+00  2.9075948728E-02  2.8545067223E-02  3.6791599830E-01
  5.34000E+03  1.9429066536E+00  8.0362126733E+00  2.9158609475E-02  2.8625147581E-02  3.6815424255E-01
  5.34500E+03  1.9450648323E+00  8.0319451098E+00  2.9241427528E-02  2.8705374954E-02  3.6839220810E-01
  5.35000E+03  1.9472233871E+00  8.0276837995E+00  2.9324403040E-02  2.8785749461E-02  3.6862989563E-01
  5.35500E+03  1.9493823175E+00  8.0234287276E+00  2.9407536162E-02  2.8866271222E-02  3.6886730583E-01
  5.36000E+03  1.9515416234E+00  8.0191798791E+00  2.9490827046E-02  2.8946940356E-02  3.6910443936E-01
  5.36500E+03  1.9537013045E+00  8.0149372390E+00  2.9574275843E-02  2.9027756983E-02  3.6934129690E-01
  5.37000E+03  1.9558613604E+00  8.0107007926E+00  2.9657882706E-02  2.9108721220E-02  3.6957787912E-01
  5.37500E+03  1.9580217910E+00  8.0064705250E+00  2.9741647787E-02  2.9189833188E-02  3.6981418670E-01
  5.38000E+03  1.9601825958E+00  8.0022464215E+00  2.9825571236E-02  2.9271093005E-02  3.7005022028E-01
  5.38500E+03  1.9623437746E+00  7.9980284675E+00  2.9909653206E-02  2.9352500791E-02  3.7028598054E-01
  5.39000E+03  1.9645053272E+00  7.9938166481E+00  2.9993893849E-02  2.9434056664E-02  3.7052146814E-01
  5.39500E+03  1.9666672532E+00  7.9896109490E+00  3.0078293317E-02  2.9515760742E-02  3.7075668373E-01
  5.40000E+03  1.9688295524E+00  7.9854113554E+00  3.0162851761E-02  2.9597613146E-02  3.7099162797E-01
  5.40500E+03  1.9709922245E+00  7.9812178529E+00  3.0247569333E-02  2.9679613993E-02  3.7122630151E-01
  5.41000E+03  1.9731552691E+00  7.9770304270E+00  3.0332446186E-02  2.9761763402E-02  3.7146070500E-01
  5.41500E+03  1.9753186861E+00  7.9728490634E+00  3.0417482470E-02  2.9844061491E-02  3.7169483909E-01
  5.42000E+03  1.9774824752E+00  7.9686737476E+00  3.0502678338E-02  2.9926508379E-02  3.7192870442E-01
  5.42500E+03  1.9796466360E+00  7.9645044654E+00  3.0588033942E-02  3.0009104184E-02  3.7216230165E-01
  5.43000E+03  1.9818111683E+00  7.9603412025E+00  3.0673549433E-02  3.0091849025E-02  3.7239563140E-01
  5.43500E+03  1.9839760719E+00  7.9561839446E+00  3.0759224963E-02  3.0174743020E-02  3.7262869432E-01
  5.44000E+03  1.9861413463E+00  7.9520326776E+00  3.0845060685E-02  3.0257786286E-02  3.7286149103E-01
  5.44500E+03  1.9883069914E+00  7.9478873873E+00  3.0931056750E-02  3.0340978943E-02  3.7309402219E-01
  5.45000E+03  1.9904730069E+00  7.9437480598E+00  3.1017213309E-02  3.0424321107E-02  3.7332628841E-01
  5.45500E+03  1.9926393925E+00  7.9396146809E+00  3.1103530516E-02  3.0507812897E-02  3.7355829032E-01
  5.46000E+03  1.9948061480E+00  7.9354872366E+00  3.1190008521E-02  3.0591454431E-02  3.7379002855E-01
  5.46500E+03  1.9969976667E+00  7.9314993918E+00  3.1276647477E-02  3.0675253581E-02  3.7402150373E-01
  5.47000E+03  1.9991999371E+00  7.9275738309E+00  3.1363447535E-02  3.0759206081E-02  3.7425271648E-01
  5.47500E+03  2.0014026207E+00  7.9236537969E+00  3.1450408848E-02  3.0843308774E-02  3.7448366741E-01
  5.48000E+03  2.0036057172E+00  7.9197392769E+00  3.1537921020E-02  3.0927936313E-02  3.7471435714E-01
  5.48500E+03  2.0058092263E+00  7.9158302582E+00  3.1625910819E-02  3.1013018159E-02  3.7494478629E-01
  5.49000E+03  2.0080131476E+00  7.9119267280E+00  3.1714065597E-02  3.1098253590E-02  3.7517495544E-01
  5.49500E+03  2.0102174810E+00  7.9080286736E+00  3.1802385514E-02  3.1183642731E-02  3.7540486483E-01
  5.50000E+03  2.0124222260E+00  7.9041360825E+00  3.1890870728E-02  3.1269185705E-02  3.7563451502E-01
  5.50500E+03  2.0146273825E+00  7.9002489418E+00  3.1979521398E-02  3.1354882634E-02  3.7586390670E-01
  5.51000E+03  2.0168329500E+00  7.8963672392E+00  3.2068337682E-02  3.1440733643E-02  3.7609304058E-01
  5.51500E+03  2.0190389284E+00  7.8924909620E+00  3.2157319740E-02  3.1526738854E-02  3.7632191736E-01
  5.52000E+03  2.0212453172E+00  7.8886200978E+00  3.2246467730E-02  3.1612898390E-02  3.7655053773E-01
  5.52500E+03  2.0234521163E+00  7.8847546341E+00  3.2335781810E-02  3.1699212374E-02  3.7677890239E-01
  5.53000E+03  2.0256593253E+00  7.8808945585E+00  3.2425262140E-02  3.1785680929E-02  3.7700701201E-01
  5.53500E+03  2.0278669439E+00  7.8770398587E+00  3.2514908878E-02  3.1872304178E-02  3.7723486730E-01
  5.54000E+03  2.0300749719E+00  7.8731905222E+00  3.2604722182E-02  3.1959082244E-02  3.7746246892E-01
  5.54500E+03  2.0322834089E+00  7.8693465368E+00  3.2694702213E-02  3.2046015249E-02  3.7768981757E-01
  5.55000E+03  2.0344922546E+00  7.8655078903E+00  3.2784849127E-02  3.2133103316E-02  3.7791691393E-01
  5.55500E+03  2.0367015087E+00  7.8616745705E+00  3.2875163085E-02  3.2220346567E-02  3.7814375865E-01
  5.56000E+03  2.0389111711E+00  7.8578465650E+00  3.2965644244E-02  3.2307745125E-02  3.7837035243E-01
  5.56500E+03  2.0411212413E+00  7.8540238620E+00  3.3056292764E-02  3.2395299112E-02  3.7859669593E-01
  5.57000E+03  2.0433317190E+00  7.8502064491E+00  3.3147108804E-02  3.2483008651E-02  3.7882278981E-01
  5.57500E+03  2.0455426041E+00  7.8463943144E+00  3.3238092521E-02  3.2570873863E-02  3.7904863474E-01
  5.58000E+03  2.0477538961E+00  7.8425874459E+00  3.3329244076E-02  3.2658894871E-02  3.7927423139E-01
  5.58500E+03  2.0499655949E+00  7.8387858315E+00  3.3420563626E-02  3.2747071798E-02  3.7949958041E-01
  5.59000E+03  2.0521777001E+00  7.8349894593E+00  3.3512051331E-02  3.2835404764E-02  3.7972468245E-01
  5.59500E+03  2.0543902113E+00  7.8311983174E+00  3.3603707349E-02  3.2923893891E-02  3.7994953818E-01
  5.60000E+03  2.0566031285E+00  7.8274123940E+00  3.3695531839E-02  3.3012539303E-02  3.8017414824E-01
  5.60500E+03  2.0588164511E+00  7.8236316772E+00  3.3787524961E-02  3.3101341120E-02  3.8039851328E-01
  5.61000E+03  2.0610301791E+00  7.8198561551E+00  3.3879686872E-02  3.3190299464E-02  3.8062263395E-01
  5.61500E+03  2.0632443120E+00  7.8160858162E+00  3.3972017732E-02  3.3279414457E-02  3.8084651090E-01
  5.62000E+03  2.0654588496E+00  7.8123206485E+00  3.4064517699E-02  3.3368686219E-02  3.8107014475E-01
  5.62500E+03  2.0676737916E+00  7.8085606405E+00  3.4157186933E-02  3.3458114874E-02  3.8129353616E-01
  5.63000E+03  2.0698891377E+00  7.8048057805E+00  3.4250025592E-02  3.3547700542E-02  3.8151668575E-01
  5.63500E+03  2.0721048876E+00  7.8010560569E+00  3.4343033836E-02  3.3637443344E-02  3.8173959416E-01
  5.64000E+03  2.0743210411E+00  7.7973114581E+00  3.4436211822E-02  3.3727343402E-02  3.8196226203E-01
  5.64500E+03  2.0765375979E+00  7.7935719725E+00  3.4529559710E-02  3.3817400836E-02  3.8218468997E-01
  5.65000E+03  2.0787545576E+00  7.7898375888E+00  3.4623077659E-02  3.3907615768E-02  3.8240687862E-01
  5.65500E+03  2.0809719200E+00  7.7861082953E+00  3.4716765828E-02  3.3997988319E-02  3.8262882860E-01
  5.66000E+03  2.0831896848E+00  7.7823840807E+00  3.4810624376E-02  3.4088518610E-02  3.8285054053E-01
  5.66500E+03  2.0854078518E+00  7.7786649336E+00  3.4904653461E-02  3.4179206762E-02  3.8307201503E-01
  5.67000E+03  2.0876264206E+00  7.7749508426E+00  3.4998853243E-02  3.4270052894E-02  3.8329325271E-01
  5.67500E+03  2.0898453910E+00  7.7712417964E+00  3.5093223880E-02  3.4361057129E-02  3.8351425420E-01
  5.68000E+03  2.0920690488E+00  7.7675608892E+00  3.5187765531E-02  3.4452221204E-02  3.8373502009E-01
  5.68500E+03  2.0943209350E+00  7.7640347106E+00  3.5282478356E-02  3.4543554168E-02  3.8395555101E-01
  5.69000E+03  2.0965732622E+00  7.7605132306E+00  3.5377362513E-02  3.4635045699E-02  3.8417584755E-01
  5.69500E+03  2.0988260302E+00  7.7569964389E+00  3.5472418162E-02  3.4726695918E-02  3.8439591033E-01
  5.70000E+03  2.1010792386E+00  7.7534843249E+00  3.5567645460E-02  3.4818504944E-02  3.8461573993E-01
  5.70500E+03  2.1033328871E+00  7.7499768785E+00  3.5663044568E-02  3.4910472899E-02  3.8483533698E-01
  5.71000E+03  2.1055869755E+00  7.7464740894E+00  3.5758615644E-02  3.5002599904E-02  3.8505470205E-01
  5.71500E+03  2.1078415034E+00  7.7429759472E+00  3.5854358848E-02  3.5094886078E-02  3.8527383575E-01
  5.72000E+03  2.1100964705E+00  7.7394824418E+00  3.5950274338E-02  3.5187331543E-02  3.8549273866E-01
  5.72500E+03  2.1123518766E+00  7.7359935630E+00  3.6046362273E-02  3.5279936420E-02  3.8571141139E-01
  5.73000E+03  2.1146077213E+00  7.7325093006E+00  3.6142622812E-02  3.5372700827E-02  3.8592985452E-01
  5.73500E+03  2.1168640043E+00  7.7290296445E+00  3.6239056114E-02  3.5465624887E-02  3.8614806863E-01
  5.74000E+03  2.1191207254E+00  7.7255545846E+00  3.6335662339E-02  3.5558708718E-02  3.8636605431E-01
  5.74500E+03  2.1213778842E+00  7.7220841108E+00  3.6432441646E-02  3.5651952441E-02  3.8658381214E-01
  5.75000E+03  2.1236354805E+00  7.7186182131E+00  3.6529394192E-02  3.5745356176E-02  3.8680134270E-01
  5.75500E+03  2.1258935140E+00  7.7151568815E+00  3.6626520139E-02  3.5838920043E-02  3.8701864656E-01
  5.76000E+03  2.1281519843E+00  7.7117001060E+00  3.6723819644E-02  3.5932644162E-02  3.8723572431E-01
  5.76500E+03  2.1304108911E+00  7.7082478767E+00  3.6821292866E-02  3.6026528652E-02  3.8745257652E-01
  5.77000E+03  2.1326702343E+00  7.7048001836E+00  3.6918939965E-02  3.6120573635E-02  3.8766920375E-01
  5.77500E+03  2.1349300134E+00  7.7013570169E+00  3.7016761100E-02  3.6214779228E-02  3.8788560658E-01
  5.78000E+03  2.1371902282E+00  7.6979183666E+00  3.7114756430E-02  3.6309145552E-02  3.8810178557E-01
  5.78500E+03  2.1394508783E+00  7.6944842231E+00  3.7212926115E-02  3.6403672726E-02  3.8831774128E-01
  5.79000E+03  2.1417119636E+00  7.6910545765E+00  3.7311270312E-02  3.6498360869E-02  3.8853347429E-01
  5.79500E+03  2.1439734837E+00  7.6876294170E+00  3.7409789181E-02  3.6593210102E-02  3.8874898514E-01
  5.80000E+03  2.1462354383E+00  7.6842087349E+00  3.7508482882E-02  3.6688220543E-02  3.8896427441E-01
  5.80500E+03  2.1484978271E+00  7.6807925205E+00  3.7607351574E-02  3.6783392311E-02  3.8917934263E-01
  5.81000E+03  2.1507606499E+00  7.6773807641E+00  3.7706395415E-02  3.6878725525E-02  3.8939419038E-01
  5.81500E+03  2.1530239063E+00  7.6739734561E+00  3.7805614565E-02  3.6974220305E-02  3.8960881819E-01
  5.82000E+03  2.1552875961E+00  7.6705705868E+00  3.7905009183E-02  3.7069876770E-02  3.8982322662E-01
  5.82500E+03  2.1575517189E+00  7.6671721467E+00  3.8004579428E-02  3.7165695038E-02  3.9003741622E-01
  5.83000E+03  2.1598162745E+00  7.6637781262E+00  3.8104325460E-02  3.7261675228E-02  3.9025138754E-01
  5.83500E+03  2.1620812625E+00  7.6603885158E+00  3.8204247437E-02  3.7357817458E-02  3.9046514111E-01
  5.84000E+03  2.1643466828E+00  7.6570033059E+00  3.8304345519E-02  3.7454121849E-02  3.9067867749E-01
  5.84500E+03  2.1666125350E+00  7.6536224872E+00  3.8404619864E-02  3.7550588517E-02  3.9089199720E-01
  5.85000E+03  2.1688788188E+00  7.6502460501E+00  3.8505070633E-02  3.7647217581E-02  3.9110510079E-01
  5.85500E+03  2.1711455339E+00  7.6468739852E+00  3.8605697984E-02  3.7744009161E-02  3.9131798879E-01
  5.86000E+03  2.1734126801E+00  7.6435062832E+00  3.8706502077E-02  3.7840963373E-02  3.9153066175E-01
  5.86500E+03  2.1756802570E+00  7.6401429346E+00  3.8807483070E-02  3.7938080337E-02  3.9174312018E-01
  5.87000E+03  2.1779482645E+00  7.6367839303E+00  3.8908641124E-02  3.8035360171E-02  3.9195536462E-01
  5.87500E+03  2.1802167021E+00  7.6334292607E+00  3.9009976397E-02  3.8132802991E-02  3.9216739561E-01
  5.88000E+03  2.1824855696E+00  7.6300789168E+00  3.9111489048E-02  3.8230408918E-02  3.9237921365E-01
  5.88500E+03  2.1847548667E+00  7.6267328892E+00  3.9213179237E-02  3.8328178068E-02  3.9259081929E-01
  5.89000E+03  2.1870245932E+00  7.6233911686E+00  3.9315047123E-02  3.8426110559E-02  3.9280221304E-01
  5.89500E+03  2.1892947488E+00  7.6200537460E+00  3.9417092865E-02  3.8524206509E-02  3.9301339542E-01
  5.90000E+03  2.1915653331E+00  7.6167206122E+00  3.9519316623E-02  3.8622466035E-02  3.9322436696E-01
  5.90500E+03  2.1938363459E+00  7.6133917579E+00  3.9621718556E-02  3.8720889256E-02  3.9343512816E-01
  5.91000E+03  2.1961321500E+00  7.6101969832E+00  3.9724298822E-02  3.8819487279E-02  3.9364567955E-01
  5.91500E+03  2.1984335085E+00  7.6070333641E+00  3.9827057583E-02  3.8918251627E-02  3.9385602163E-01
  5.92000E+03  2.2007353311E+00  7.6038737315E+00  3.9929994996E-02  3.9017180131E-02  3.9406615492E-01
  5.92500E+03  2.2030376174E+00  7.6007180772E+00  4.0033111221E-02  3.9116272907E-02  3.9427607994E-01
  5.93000E+03  2.2053403672E+00  7.5975663927E+00  4.0136406418E-02  3.9215530074E-02  3.9448579719E-01
  5.93500E+03  2.2076435800E+00  7.5944186697E+00  4.0239880745E-02  3.9314951750E-02  3.9469530739E-01
  5.94000E+03  2.2099472558E+00  7.5912748998E+00  4.0343534362E-02  3.9414538051E-02  3.9490461117E-01
  5.94500E+03  2.2122513941E+00  7.5881350749E+00  4.0447367429E-02  3.9514289096E-02  3.9511370911E-01
  5.95000E+03  2.2145559946E+00  7.5849991866E+00  4.0551380105E-02  3.9614205002E-02  3.9532260180E-01
  5.95500E+03  2.2168610571E+00  7.5818672267E+00  4.0655572548E-02  3.9714285885E-02  3.9553128981E-01
  5.96000E+03  2.2191665812E+00  7.5787391871E+00  4.0759944919E-02  3.9814531864E-02  3.9573977372E-01
  5.96500E+03  2.2214725667E+00  7.5756150594E+00  4.0864497377E-02  3.9914943055E-02  3.9594805409E-01
  5.97000E+03  2.2237790133E+00  7.5724948355E+00  4.0969230082E-02  4.0015519576E-02  3.9615613151E-01
  5.97500E+03  2.2260859207E+00  7.5693785074E+00  4.1074143192E-02  4.0116261543E-02  3.9636400654E-01
  5.98000E+03  2.2283932885E+00  7.5662660668E+00  4.1179236867E-02  4.0217169073E-02  3.9657167974E-01
  5.98500E+03  2.2307011165E+00  7.5631575057E+00  4.1284511266E-02  4.0318242283E-02  3.9677915168E-01
  5.99000E+03  2.2330094044E+00  7.5600528161E+00  4.1389966549E-02  4.0419481290E-02  3.9698642293E-01
  5.99500E+03  2.2353181519E+00  7.5569519898E+00  4.1495602876E-02  4.0520886210E-02  3.9719349404E-01
  6.00000E+03  2.2376273588E+00  7.5538550188E+00  4.1601420405E-02  4.0622457160E-02  3.9740036558E-01
  6.00500E+03  2.2399370246E+00  7.5507618952E+00  4.1707856326E-02  4.0724610924E-02  3.9760703809E-01
  6.01000E+03  2.2422471492E+00  7.5476726109E+00  4.1814475633E-02  4.0826932655E-02  3.9781351213E-01
  6.01500E+03  2.2445577322E+00  7.5445871581E+00  4.1921278491E-02  4.0929422475E-02  3.9801978825E-01
  6.02000E+03  2.2468687734E+00  7.5415055287E+00  4.2028265061E-02  4.1032080500E-02  3.9822586701E-01
  6.02500E+03  2.2491802724E+00  7.5384277149E+00  4.2135435506E-02  4.1134906851E-02  3.9843174894E-01
  6.03000E+03  2.2514922290E+00  7.5353537088E+00  4.2242789991E-02  4.1237901646E-02  3.9863743460E-01
  6.03500E+03  2.2538046429E+00  7.5322835025E+00  4.2350328677E-02  4.1341065004E-02  3.9884292453E-01
  6.04000E+03  2.2561175137E+00  7.5292170882E+00  4.2458051729E-02  4.1444397044E-02  3.9904821926E-01
  6.04500E+03  2.2584308413E+00  7.5261544581E+00  4.2565959308E-02  4.1547897884E-02  3.9925331935E-01
  6.05000E+03  2.2607446253E+00  7.5230956043E+00  4.2674051578E-02  4.1651567643E-02  3.9945822531E-01
  6.05500E+03  2.2630588654E+00  7.5200405192E+00  4.2782328703E-02  4.1755406439E-02  3.9966293770E-01
  6.06000E+03  2.2653735613E+00  7.5169891949E+00  4.2890790845E-02  4.1859414391E-02  3.9986745704E-01
  6.06500E+03  2.2676887128E+00  7.5139416237E+00  4.2999438167E-02  4.1963591616E-02  4.0007178386E-01
  6.07000E+03  2.2700043196E+00  7.5108977980E+00  4.3108270832E-02  4.2067938234E-02  4.0027591869E-01
  6.07500E+03  2.2723203813E+00  7.5078577100E+00  4.3217289004E-02  4.2172454362E-02  4.0047986207E-01
  6.08000E+03  2.2746368978E+00  7.5048213521E+00  4.3326492846E-02  4.2277140119E-02  4.0068361450E-01
  6.08500E+03  2.2769538687E+00  7.5017887166E+00  4.3435882520E-02  4.2381995621E-02  4.0088717653E-01
  6.09000E+03  2.2792712937E+00  7.4987597959E+00  4.3545458191E-02  4.2487020987E-02  4.0109054866E-01
  6.09500E+03  2.2815891725E+00  7.4957345825E+00  4.3655220020E-02  4.2592216336E-02  4.0129373142E-01
  6.10000E+03  2.2839075049E+00  7.4927130687E+00  4.3765168172E-02  4.2697581783E-02  4.0149672532E-01
  6.10500E+03  2.2862262906E+00  7.4896952471E+00  4.3875302809E-02  4.2803117448E-02  4.0169953088E-01
  6.11000E+03  2.2885455292E+00  7.4866811100E+00  4.3985624095E-02  4.2908823447E-02  4.0190214861E-01
  6.11500E+03  2.2908652206E+00  7.4836706500E+00  4.4096132193E-02  4.3014699898E-02  4.0210457903E-01
  6.12000E+03  2.2931853645E+00  7.4806638595E+00  4.4206827265E-02  4.3120746919E-02  4.0230682264E-01
  6.12500E+03  2.2955059604E+00  7.4776607312E+00  4.4317709476E-02  4.3226964626E-02  4.0250887995E-01
  6.13000E+03  2.2978270083E+00  7.4746612576E+00  4.4428778989E-02  4.3333353136E-02  4.0271075147E-01
  6.13500E+03  2.3001485077E+00  7.4716654312E+00  4.4540035966E-02  4.3439912568E-02  4.0291243769E-01
  6.14000E+03  2.3024704584E+00  7.4686732446E+00  4.4651480570E-02  4.3546643037E-02  4.0311393914E-01
  6.14500E+03  2.3048121050E+00  7.4657861434E+00  4.4763112967E-02  4.3653555033E-02  4.0331525629E-01
  6.15000E+03  2.3071619592E+00  7.4629432168E+00  4.4874933317E-02  4.3760642565E-02  4.0351638965E-01
  6.15500E+03  2.3095122965E+00  7.4601036818E+00  4.4986941785E-02  4.3867901601E-02  4.0371733972E-01
  6.16000E+03  2.3118631167E+00  7.4572675316E+00  4.5099138534E-02  4.3975332258E-02  4.0391810700E-01
  6.16500E+03  2.3142144196E+00  7.4544347595E+00  4.5211523727E-02  4.4082934652E-02  4.0411869197E-01
  6.17000E+03  2.3165662047E+00  7.4516053588E+00  4.5324097528E-02  4.4190708902E-02  4.0431909513E-01
  6.17500E+03  2.3189184718E+00  7.4487793225E+00  4.5436860099E-02  4.4298655124E-02  4.0451931696E-01
  6.18000E+03  2.3212712207E+00  7.4459566442E+00  4.5549811605E-02  4.4406773434E-02  4.0471935795E-01
  6.18500E+03  2.3236244509E+00  7.4431373169E+00  4.5662952208E-02  4.4515063951E-02  4.0491921860E-01
  6.19000E+03  2.3259781624E+00  7.4403213341E+00  4.5776282072E-02  4.4623526789E-02  4.0511889938E-01
  6.19500E+03  2.3283323546E+00  7.4375086891E+00  4.5889801359E-02  4.4732162067E-02  4.0531840077E-01
  6.20000E+03  2.3306870274E+00  7.4346993753E+00  4.6003510235E-02  4.4840969899E-02  4.0551772326E-01
  6.20500E+03  2.3330421805E+00  7.4318933860E+00  4.6117408861E-02  4.4949950404E-02  4.0571686733E-01
  6.21000E+03  2.3353978136E+00  7.4290907146E+00  4.6231497401E-02  4.5059103697E-02  4.0591583345E-01
  6.21500E+03  2.3377539264E+00  7.4262913545E+00  4.6345776018E-02  4.5168429894E-02  4.0611462210E-01
  6.22000E+03  2.3401105185E+00  7.4234952991E+00  4.6460244877E-02  4.5277929112E-02  4.0631323375E-01
  6.22500E+03  2.3424675898E+00  7.4207025420E+00  4.6574904140E-02  4.5387601466E-02  4.0651166887E-01
  6.23000E+03  2.3448251399E+00  7.4179130765E+00  4.6689753970E-02  4.5497447073E-02  4.0670992794E-01
  6.23500E+03  2.3471831685E+00  7.4151268962E+00  4.6804794532E-02  4.5607466048E-02  4.0690801142E-01
  6.24000E+03  2.3495416754E+00  7.4123439945E+00  4.6920025987E-02  4.5717658508E-02  4.0710591979E-01
  6.24500E+03  2.3519006603E+00  7.4095643650E+00  4.7035448501E-02  4.5828024567E-02  4.0730365350E-01
  6.25000E+03  2.3542601228E+00  7.4067880012E+00  4.7151062236E-02  4.5938564343E-02  4.0750121302E-01
  6.25500E+03  2.3566200627E+00  7.4040148966E+00  4.7266867356E-02  4.6049277949E-02  4.0769859881E-01
  6.26000E+03  2.3589804797E+00  7.4012450449E+00  4.7382864025E-02  4.6160165502E-02  4.0789581133E-01
  6.26500E+03  2.3613413736E+00  7.3984784396E+00  4.7499052404E-02  4.6271227117E-02  4.0809285105E-01
  6.27000E+03  2.3637027440E+00  7.3957150744E+00  4.7615432659E-02  4.6382462910E-02  4.0828971841E-01
  6.27500E+03  2.3660645907E+00  7.3929549427E+00  4.7732004953E-02  4.6493872994E-02  4.0848641389E-01
  6.28000E+03  2.3684269133E+00  7.3901980384E+00  4.7848769449E-02  4.6605457487E-02  4.0868293792E-01
  6.28500E+03  2.3707897116E+00  7.3874443551E+00  4.7965726310E-02  4.6717216502E-02  4.0887929096E-01
  6.29000E+03  2.3731529853E+00  7.3846938864E+00  4.8082875700E-02  4.6829150154E-02  4.0907547346E-01
  6.29500E+03  2.3755167342E+00  7.3819466260E+00  4.8200217783E-02  4.6941258559E-02  4.0927148588E-01
  6.30000E+03  2.3778809579E+00  7.3792025677E+00  4.8317752722E-02  4.7053541831E-02  4.0946732866E-01
  6.30500E+03  2.3802456561E+00  7.3764617052E+00  4.8435480681E-02  4.7166000084E-02  4.0966300225E-01
  6.31000E+03  2.3826108286E+00  7.3737240322E+00  4.8553401823E-02  4.7278633434E-02  4.0985850709E-01
  6.31500E+03  2.3849764752E+00  7.3709895425E+00  4.8671516312E-02  4.7391441995E-02  4.1005384362E-01
  6.32000E+03  2.3873425954E+00  7.3682582299E+00  4.8789824310E-02  4.7504425881E-02  4.1024901229E-01
  6.32500E+03  2.3897091891E+00  7.3655300882E+00  4.8908325983E-02  4.7617585206E-02  4.1044401354E-01
  6.33000E+03  2.3920762559E+00  7.3628051111E+00  4.9027021493E-02  4.7730920085E-02  4.1063884780E-01
  6.33500E+03  2.3944437957E+00  7.3600832926E+00  4.9145911005E-02  4.7844430632E-02  4.1083351552E-01
  6.34000E+03  2.3968118080E+00  7.3573646265E+00  4.9264994680E-02  4.7958116960E-02  4.1102801714E-01
  6.34500E+03  2.3991802926E+00  7.3546491066E+00  4.9384272684E-02  4.8071979185E-02  4.1122235325E-01
  6.35000E+03  2.4015492493E+00  7.3519367269E+00  4.9503745180E-02  4.8186017419E-02  4.1141652433E-01
  6.35500E+03  2.4039186778E+00  7.3492274812E+00  4.9623412331E-02  4.8300231776E-02  4.1161053087E-01
  6.36000E+03  2.4062885777E+00  7.3465213634E+00  4.9743274302E-02  4.8414622370E-02  4.1180437333E-01
  6.36500E+03  2.4086589488E+00  7.3438183675E+00  4.9863331255E-02  4.8529189315E-02  4.1199805218E-01
  6.37000E+03  2.4110297909E+00  7.3411184874E+00  4.9983583354E-02  4.8643932724E-02  4.1219156790E-01
  6.37500E+03  2.4134011037E+00  7.3384217172E+00  5.0104030763E-02  4.8758852711E-02  4.1238492096E-01
  6.38000E+03  2.4157728868E+00  7.3357280507E+00  5.0224673646E-02  4.8873949388E-02  4.1257811183E-01
  6.38500E+03  2.4181451401E+00  7.3330374820E+00  5.0345512166E-02  4.8989222869E-02  4.1277114096E-01
  6.39000E+03  2.4205356010E+00  7.3304426420E+00  5.0466546487E-02  4.9104684724E-02  4.1296400882E-01
  6.39500E+03  2.4229334334E+00  7.3278866369E+00  5.0587776772E-02  4.9220328156E-02  4.1315671588E-01
  6.40000E+03  2.4253317644E+00  7.3253335197E+00  5.0709203186E-02  4.9336148853E-02  4.1334926259E-01
  6.40500E+03  2.4277305937E+00  7.3227832848E+00  5.0830825893E-02  4.9452146929E-02  4.1354164941E-01
  6.41000E+03  2.4301299208E+00  7.3202359268E+00  5.0952645054E-02  4.9568322496E-02  4.1373387680E-01
  6.41500E+03  2.4325297457E+00  7.3176914401E+00  5.1074660836E-02  4.9684675668E-02  4.1392594521E-01
